# pulse 104614  TRANSP M29  channel total (THNTX)  t_JET = 53.527 s
# equilibrium: TRANSP CDF (PSIRZ + boundary moments)  t_EQ = 53.529 s
# LOS R in [2.700, 3.100] m  (w_tor = 0.400 m)
# Rate_LOS = 4.4154e+15 n/s   Rate_tor = 2.0212e+17 n/s   rho_bnd = 0.30703729776853983
#     rhot           THNTX [n/m3/s]   THKM14 [n/m3/s]  f               DVOL [m3]
2.49999994e-03 2.72839601e+16 2.72839601e+16 1.00000000e+00 1.91790692e-03
7.49999983e-03 2.72628697e+16 2.72628697e+16 1.00000000e+00 5.75413462e-03
1.25000002e-02 2.72325515e+16 2.72325515e+16 1.00000000e+00 9.59060807e-03
1.75000001e-02 2.72392903e+16 2.72392903e+16 1.00000000e+00 1.34264808e-02
2.25000009e-02 2.72588496e+16 2.72588496e+16 1.00000000e+00 1.72607116e-02
2.74999999e-02 2.72887490e+16 2.72887490e+16 1.00000000e+00 2.10942104e-02
3.24999988e-02 2.73287201e+16 2.73287201e+16 1.00000000e+00 2.49277595e-02
3.75000015e-02 2.73783098e+16 2.73783098e+16 1.00000000e+00 2.87605189e-02
4.25000004e-02 2.74373592e+16 2.74373592e+16 1.00000000e+00 3.25945094e-02
4.74999994e-02 2.75060701e+16 2.75060701e+16 1.00000000e+00 3.64288203e-02
5.24999984e-02 2.75848999e+16 2.75848999e+16 1.00000000e+00 4.02636789e-02
5.75000010e-02 2.76760305e+16 2.76760305e+16 1.00000000e+00 4.40989509e-02
6.25000000e-02 2.77785385e+16 2.77146565e+16 9.97700310e-01 4.79308702e-02
6.75000027e-02 2.78855798e+16 2.54568077e+16 9.12902218e-01 5.17657399e-02
7.24999979e-02 2.79941802e+16 2.46161392e+16 8.79330598e-01 5.55952899e-02
7.75000006e-02 2.81187493e+16 2.37003959e+16 8.42868068e-01 5.94257191e-02
8.25000033e-02 2.82578697e+16 2.28708785e+16 8.09363150e-01 6.32546023e-02
8.74999985e-02 2.84336499e+16 2.21744553e+16 7.79866650e-01 6.70777559e-02
9.25000012e-02 2.86467404e+16 2.18148245e+16 7.61511578e-01 7.09034279e-02
9.74999964e-02 2.87196303e+16 2.09451106e+16 7.29295971e-01 7.47298002e-02
1.02499999e-01 2.87209596e+16 2.09019800e+16 7.27760504e-01 7.85587803e-02
1.07500002e-01 2.87100117e+16 2.03280320e+16 7.08046803e-01 8.23760256e-02
1.12499997e-01 2.86928683e+16 2.00637074e+16 6.99257640e-01 8.61949399e-02
1.17500000e-01 2.86739211e+16 1.97688340e+16 6.89436019e-01 9.00148302e-02
1.22500002e-01 2.86516688e+16 1.94594431e+16 6.79173112e-01 9.38305482e-02
1.27499998e-01 2.86309392e+16 1.93460754e+16 6.75705230e-01 9.76336524e-02
1.32499993e-01 2.86085903e+16 1.91346991e+16 6.68844530e-01 1.01447895e-01
1.37500003e-01 2.85873603e+16 1.93058443e+16 6.75327980e-01 1.05253205e-01
1.42499998e-01 2.85669184e+16 1.90001056e+16 6.65108686e-01 1.09047398e-01
1.47499993e-01 2.85461887e+16 1.86536909e+16 6.53456441e-01 1.12867497e-01
1.52500004e-01 2.85283195e+16 1.84028617e+16 6.45073456e-01 1.16650902e-01
1.57499999e-01 2.85116400e+16 1.83964606e+16 6.45226321e-01 1.20462000e-01
1.62499994e-01 2.84965991e+16 1.85274774e+16 6.50164512e-01 1.24247603e-01
1.67500004e-01 2.84845087e+16 1.83566049e+16 6.44441688e-01 1.28030896e-01
1.72499999e-01 2.84738508e+16 1.81508037e+16 6.37455180e-01 1.31822005e-01
1.77499995e-01 2.84654992e+16 1.78942956e+16 6.28631013e-01 1.35591790e-01
1.82500005e-01 2.84599007e+16 1.77312333e+16 6.23025130e-01 1.39387086e-01
1.87500000e-01 2.84547510e+16 1.77547175e+16 6.23963198e-01 1.43149704e-01
1.92499995e-01 2.84524790e+16 1.78013366e+16 6.25651516e-01 1.46912798e-01
1.97500005e-01 2.84519894e+16 1.76787300e+16 6.21353038e-01 1.50690302e-01
2.02500001e-01 2.84522707e+16 1.75221636e+16 6.15844119e-01 1.54458702e-01
2.07499996e-01 2.84555198e+16 1.73137895e+16 6.08450998e-01 1.58232093e-01
2.12500006e-01 2.84601004e+16 1.73369678e+16 6.09167485e-01 1.61951199e-01
2.17500001e-01 2.84649494e+16 1.73589889e+16 6.09837335e-01 1.65718406e-01
2.22499996e-01 2.84723196e+16 1.73661089e+16 6.09929543e-01 1.69475496e-01
2.27500007e-01 2.84793097e+16 1.71750100e+16 6.03069743e-01 1.73205912e-01
2.32500002e-01 2.84705801e+16 1.71160383e+16 6.01183333e-01 1.76949203e-01
2.37499997e-01 2.84265310e+16 1.69979602e+16 5.97961116e-01 1.80673793e-01
2.42500007e-01 2.83494599e+16 1.69702725e+16 5.98610080e-01 1.84386909e-01
2.47500002e-01 2.82360105e+16 1.69910938e+16 6.01752637e-01 1.88115090e-01
2.52499998e-01 2.80841705e+16 1.69211944e+16 6.02517151e-01 1.91835493e-01
2.57499993e-01 2.78965900e+16 1.66426921e+16 5.96585180e-01 1.95540100e-01
2.62499988e-01 2.76709302e+16 1.63817871e+16 5.92021552e-01 1.99281499e-01
2.67500013e-01 2.74058191e+16 1.61710025e+16 5.90057259e-01 2.02927798e-01
2.72500008e-01 2.71036102e+16 1.60719228e+16 5.92980887e-01 2.06647098e-01
2.77500004e-01 2.67625898e+16 1.59050208e+16 5.94300513e-01 2.10337803e-01
2.82499999e-01 2.64043186e+16 1.56178309e+16 5.91487747e-01 2.14023292e-01
2.87499994e-01 2.60096004e+16 1.53265256e+16 5.89264172e-01 2.17664912e-01
2.92499989e-01 2.55784200e+16 1.49982200e+16 5.86362252e-01 2.21343204e-01
2.97500014e-01 2.51116000e+16 1.47119634e+16 5.85863241e-01 2.25038290e-01
3.02500010e-01 2.46198113e+16 1.44077035e+16 5.85207714e-01 2.28691697e-01
3.07500005e-01 2.41175213e+16 1.42133478e+16 5.89337005e-01 2.32336000e-01
3.12500000e-01 2.35820999e+16 1.38267472e+16 5.86323833e-01 2.35933796e-01
3.17499995e-01 2.30148400e+16 1.34236836e+16 5.83262088e-01 2.39619300e-01
3.22499990e-01 2.24470990e+16 1.30035690e+16 5.79298421e-01 2.43251503e-01
3.27499986e-01 2.18533605e+16 1.27566201e+16 5.83737230e-01 2.46820495e-01
3.32500011e-01 2.12320291e+16 1.23993284e+16 5.83991680e-01 2.50447989e-01
3.37500006e-01 2.06212096e+16 1.16142084e+16 5.63216639e-01 2.54071712e-01
3.42500001e-01 1.99841306e+16 1.04610440e+16 5.23467554e-01 2.57655412e-01
3.47499996e-01 1.93423616e+16 9.66518450e+15 4.99689992e-01 2.61272192e-01
3.52499992e-01 1.86977300e+16 9.00150330e+15 4.81422254e-01 2.64798105e-01
3.57499987e-01 1.80399901e+16 8.48447409e+15 4.70314787e-01 2.68438816e-01
3.62500012e-01 1.73939894e+16 7.99595904e+15 4.59696671e-01 2.71968991e-01
3.67500007e-01 1.67347205e+16 7.48923993e+15 4.47527040e-01 2.75484413e-01
3.72500002e-01 1.60964701e+16 7.00006298e+15 4.34881867e-01 2.79060900e-01
3.77499998e-01 1.54476799e+16 6.55765471e+15 4.24507419e-01 2.82612085e-01
3.82499993e-01 1.48232797e+16 6.16774287e+15 4.16084902e-01 2.86115319e-01
3.87499988e-01 1.41962896e+16 5.84562304e+15 4.11771188e-01 2.89688319e-01
3.92500013e-01 1.35939108e+16 5.50443790e+15 4.04919377e-01 2.93206602e-01
3.97500008e-01 1.29972690e+16 5.14374722e+15 3.95756003e-01 2.96608984e-01
4.02500004e-01 1.24227194e+16 4.84304349e+15 3.89853730e-01 3.00176680e-01
4.07499999e-01 1.18645100e+16 4.51302924e+15 3.80380583e-01 3.03647816e-01
4.12499994e-01 1.13247303e+16 4.26249232e+15 3.76387975e-01 3.07136506e-01
4.17499989e-01 1.08107902e+16 4.04023154e+15 3.73722129e-01 3.10528696e-01
4.22500014e-01 1.03112308e+16 3.78870789e+15 3.67435078e-01 3.13964188e-01
4.27500010e-01 9.84304928e+15 3.54430643e+15 3.60082158e-01 3.17510098e-01
4.32500005e-01 9.38236250e+15 3.32945838e+15 3.54863541e-01 3.20886701e-01
4.37500000e-01 8.95555710e+15 3.13383531e+15 3.49931922e-01 3.24294984e-01
4.42499995e-01 8.53633286e+15 2.94619509e+15 3.45135919e-01 3.27705592e-01
4.47499990e-01 8.14484874e+15 2.80042395e+15 3.43827619e-01 3.31089586e-01
4.52499986e-01 7.76286992e+15 2.62820731e+15 3.38561297e-01 3.34503591e-01
4.57500011e-01 7.40412204e+15 2.46320474e+15 3.32680192e-01 3.37925106e-01
4.62500006e-01 7.05681219e+15 2.31683964e+15 3.28312498e-01 3.41148674e-01
4.67500001e-01 6.72987069e+15 2.20006939e+15 3.26911095e-01 3.44551414e-01
4.72499996e-01 6.41412617e+15 2.07503135e+15 3.23509593e-01 3.47954005e-01
4.77499992e-01 6.11569091e+15 1.95504349e+15 3.19676635e-01 3.51238400e-01
4.82499987e-01 5.82879568e+15 1.83692306e+15 3.15146243e-01 3.54527503e-01
4.87500012e-01 5.55768875e+15 1.73401364e+15 3.12002655e-01 3.57786089e-01
4.92500007e-01 5.29645596e+15 1.63131674e+15 3.08001567e-01 3.61093819e-01
4.97500002e-01 5.05051164e+15 1.53723853e+15 3.04372832e-01 3.64400893e-01
5.02499998e-01 4.81264776e+15 1.46420141e+15 3.04240303e-01 3.67680013e-01
5.07499993e-01 4.58954300e+15 1.38038355e+15 3.00767103e-01 3.70916605e-01
5.12499988e-01 4.37169716e+15 1.29182048e+15 2.95496333e-01 3.74071002e-01
5.17499983e-01 4.16916878e+15 1.22016118e+15 2.92662936e-01 3.77293408e-01
5.22499979e-01 3.96988605e+15 1.15554757e+15 2.91078272e-01 3.80548507e-01
5.27499974e-01 3.78658893e+15 1.09753955e+15 2.89849140e-01 3.83769602e-01
5.32500029e-01 3.60605696e+15 1.03457776e+15 2.86900006e-01 3.86936009e-01
5.37500024e-01 3.43750607e+15 9.72262022e+14 2.82839362e-01 3.90015393e-01
5.42500019e-01 3.27445998e+15 9.18918651e+14 2.80632122e-01 3.93189013e-01
5.47500014e-01 3.11938294e+15 8.75595263e+14 2.80695022e-01 3.96284103e-01
5.52500010e-01 2.97174908e+15 8.18539916e+14 2.75440454e-01 3.99412900e-01
5.57500005e-01 2.82848507e+15 7.77211373e+14 2.74780087e-01 4.02552903e-01
5.62500000e-01 2.69509198e+15 7.35129085e+14 2.72765861e-01 4.05666590e-01
5.67499995e-01 2.56387777e+15 6.92057578e+14 2.69926119e-01 4.08630908e-01
5.72499990e-01 2.44190688e+15 6.53581620e+14 2.67652148e-01 4.11677986e-01
5.77499986e-01 2.32310083e+15 6.15562973e+14 2.64974712e-01 4.14768696e-01
5.82499981e-01 2.20987905e+15 5.83843824e+14 2.64197184e-01 4.17787701e-01
5.87499976e-01 2.10275693e+15 5.54385226e+14 2.63646843e-01 4.20788825e-01
5.92499971e-01 1.99766606e+15 5.17393849e+14 2.58999168e-01 4.23758000e-01
5.97500026e-01 1.90104607e+15 4.89687079e+14 2.57588222e-01 4.26599801e-01
6.02500021e-01 1.80648391e+15 4.64594780e+14 2.57181798e-01 4.29710597e-01
6.07500017e-01 1.71697800e+15 4.37727638e+14 2.54940737e-01 4.32585686e-01
6.12500012e-01 1.63207791e+15 4.14277526e+14 2.53834406e-01 4.35365915e-01
6.17500007e-01 1.54904398e+15 3.88567013e+14 2.50843113e-01 4.38392997e-01
6.22500002e-01 1.47273395e+15 3.67831671e+14 2.49761113e-01 4.41189677e-01
6.27499998e-01 1.39840605e+15 3.48771223e+14 2.49406260e-01 4.44174200e-01
6.32499993e-01 1.32768203e+15 3.27580417e+14 2.46731076e-01 4.46886599e-01
6.37499988e-01 1.26105810e+15 3.08392732e+14 2.44550773e-01 4.49670196e-01
6.42499983e-01 1.19593203e+15 2.91020121e+14 2.43341689e-01 4.52624321e-01
6.47499979e-01 1.13557607e+15 2.74695341e+14 2.41899551e-01 4.55230683e-01
6.52499974e-01 1.07745496e+15 2.59849949e+14 2.41170127e-01 4.57975894e-01
6.57500029e-01 1.02158703e+15 2.42850453e+14 2.37718810e-01 4.60847825e-01
6.62500024e-01 9.69994272e+14 2.29993983e+14 2.37108599e-01 4.63386506e-01
6.67500019e-01 9.19968506e+14 2.17245859e+14 2.36144887e-01 4.66051817e-01
6.72500014e-01 8.73370527e+14 2.05416159e+14 2.35199326e-01 4.68959808e-01
6.77500010e-01 8.29326577e+14 1.93066624e+14 2.32799272e-01 4.71590579e-01
6.82500005e-01 7.86509511e+14 1.82074476e+14 2.31496852e-01 4.73839819e-01
6.87500000e-01 7.47538655e+14 1.72056785e+14 2.30164398e-01 4.76700485e-01
6.92499995e-01 7.09631878e+14 1.63963196e+14 2.31053876e-01 4.79410499e-01
6.97499990e-01 6.73729038e+14 1.53801368e+14 2.28283715e-01 4.81734395e-01
7.02499986e-01 6.40283792e+14 1.45788303e+14 2.27693258e-01 4.84552920e-01
7.07499981e-01 6.07614258e+14 1.37239660e+14 2.25866425e-01 4.86794591e-01
7.12499976e-01 5.77447079e+14 1.29730416e+14 2.24662001e-01 4.89161402e-01
7.17499971e-01 5.48421119e+14 1.22760539e+14 2.23843565e-01 4.91902083e-01
7.22500026e-01 5.20595503e+14 1.16287919e+14 2.23374804e-01 4.94326591e-01
7.27500021e-01 4.94830799e+14 1.10158091e+14 2.22617694e-01 4.96563315e-01
7.32500017e-01 4.69577398e+14 1.03574647e+14 2.20569916e-01 4.99173582e-01
7.37500012e-01 4.46114998e+14 9.72554057e+13 2.18005237e-01 5.01340806e-01
7.42500007e-01 4.23513001e+14 9.19638304e+13 2.17145235e-01 5.03696024e-01
7.47500002e-01 4.01840999e+14 8.77153438e+13 2.18283709e-01 5.05976021e-01
7.52499998e-01 3.81646096e+14 8.31271003e+13 2.17812002e-01 5.08553088e-01
7.57499993e-01 3.61704496e+14 7.77940289e+13 2.15076201e-01 5.10622680e-01
7.62499988e-01 3.43434678e+14 7.30633194e+13 2.12742987e-01 5.12884796e-01
7.67499983e-01 3.25502317e+14 6.88110414e+13 2.11399544e-01 5.14958978e-01
7.72499979e-01 3.08667019e+14 6.60578651e+13 2.14010118e-01 5.17241120e-01
7.77499974e-01 2.92504688e+14 6.20200698e+13 2.12031029e-01 5.19652426e-01
7.82500029e-01 2.76952997e+14 5.84753498e+13 2.11138173e-01 5.21350801e-01
7.87500024e-01 2.62278000e+14 5.45637962e+13 2.08038022e-01 5.23659706e-01
7.92500019e-01 2.47937506e+14 5.12182753e+13 2.06577359e-01 5.25772512e-01
7.97500014e-01 2.34542493e+14 4.89560591e+13 2.08730019e-01 5.27716160e-01
8.02500010e-01 2.21383502e+14 4.60114377e+13 2.07835892e-01 5.29799163e-01
8.07500005e-01 2.09107697e+14 4.31937965e+13 2.06562442e-01 5.31620383e-01
8.12500000e-01 1.96409794e+14 4.01715752e+13 2.04529389e-01 5.33782125e-01
8.17499995e-01 1.83616395e+14 3.74926836e+13 2.04190283e-01 5.35582364e-01
8.22499990e-01 1.71232310e+14 3.50269965e+13 2.04558337e-01 5.37625134e-01
8.27499986e-01 1.59541694e+14 3.24345428e+13 2.03298222e-01 5.39251149e-01
8.32499981e-01 1.48393905e+14 2.98130814e+13 2.00905026e-01 5.41383803e-01
8.37499976e-01 1.37678306e+14 2.76210117e+13 2.00619928e-01 5.43106973e-01
8.42499971e-01 1.27709502e+14 2.57479139e+13 2.01613142e-01 5.44603109e-01
8.47500026e-01 1.18033293e+14 2.38702232e+13 2.02232968e-01 5.46682596e-01
8.52500021e-01 1.09014097e+14 2.17194307e+13 1.99235066e-01 5.48187852e-01
8.57500017e-01 1.00440495e+14 1.99356828e+13 1.98482523e-01 5.50063312e-01
8.62500012e-01 9.22026215e+13 1.84106713e+13 1.99676225e-01 5.51690817e-01
8.67500007e-01 8.45756739e+13 1.68357067e+13 1.99060864e-01 5.53120315e-01
8.72500002e-01 7.73200649e+13 1.52699931e+13 1.97490692e-01 5.55031359e-01
8.77499998e-01 7.03797920e+13 1.39226224e+13 1.97821306e-01 5.56258857e-01
8.82499993e-01 6.38366484e+13 1.26905595e+13 1.98797397e-01 5.58115125e-01
8.87499988e-01 5.76881594e+13 1.13837900e+13 1.97333216e-01 5.59371173e-01
8.92499983e-01 5.17688892e+13 1.01852595e+13 1.96744796e-01 5.60914695e-01
8.97499979e-01 4.60688720e+13 9.05879367e+12 1.96635891e-01 5.62137008e-01
9.02499974e-01 4.07086815e+13 8.10423814e+12 1.99078866e-01 5.63882887e-01
9.07500029e-01 3.56933005e+13 6.99303891e+12 1.95920209e-01 5.65096498e-01
9.12500024e-01 3.10382103e+13 6.06223039e+12 1.95315075e-01 5.66177487e-01
9.17500019e-01 2.67432808e+13 5.26513521e+12 1.96876937e-01 5.67514122e-01
9.22500014e-01 2.28218896e+13 4.48836966e+12 1.96669502e-01 5.68446100e-01
9.27500010e-01 1.92835999e+13 3.68587981e+12 1.91140649e-01 5.70106983e-01
9.32500005e-01 1.59957396e+13 3.00395408e+12 1.87797136e-01 5.70832849e-01
9.37500000e-01 1.29444505e+13 2.43939688e+12 1.88451172e-01 5.71695685e-01
9.42499995e-01 1.01811004e+13 1.89662980e+12 1.86289273e-01 5.72612643e-01
9.47499990e-01 7.73537608e+12 1.38426295e+12 1.78952249e-01 5.74309111e-01
9.52499986e-01 5.64006381e+12 9.97799462e+11 1.76912797e-01 5.74016213e-01
9.57499981e-01 3.91125402e+12 6.81313834e+11 1.74193195e-01 5.74899375e-01
9.62499976e-01 2.55398196e+12 4.50360496e+11 1.76336600e-01 5.76861620e-01
9.67499971e-01 1.63303994e+12 2.86064549e+11 1.75173026e-01 5.78849494e-01
9.72500026e-01 1.15404597e+12 1.89560353e+11 1.64257194e-01 5.81881642e-01
9.77500021e-01 9.13858167e+11 1.54427603e+11 1.68984213e-01 5.86777806e-01
9.82500017e-01 7.21950015e+11 1.32238693e+11 1.83168766e-01 5.57891786e-01
9.87500012e-01 5.75327109e+11 1.20475987e+11 2.09404328e-01 5.11362016e-01
9.92500007e-01 4.60459606e+11 1.12316957e+11 2.43923584e-01 4.82280821e-01
9.97500002e-01 3.64888588e+11 8.44328007e+10 2.31393372e-01 4.65504676e-01
