# pulse 104614  TRANSP M29  t_JET = 53.527 s
# eq = eftp/gszepesi/405  t_EQ = 53.527 s
# LOS R in [2.700, 3.100] m  (w_tor = 0.400 m)
# Rate_LOS = 4.4517e+15 n/s   Rate_tor = 2.0375e+17 n/s   rho_bnd = 0.30849922692943305
#     rhot           THNTX [n/m3/s]   THKM14 [n/m3/s]  f               DVOL [m3]
2.49999994e-03 2.72839601e+16 2.72839601e+16 1.00000000e+00 1.91790692e-03
7.49999983e-03 2.72628697e+16 2.72628697e+16 1.00000000e+00 5.75413462e-03
1.25000002e-02 2.72325515e+16 2.72325515e+16 1.00000000e+00 9.59060807e-03
1.75000001e-02 2.72392903e+16 2.72392903e+16 1.00000000e+00 1.34264808e-02
2.25000009e-02 2.72588496e+16 2.48452016e+16 9.11454516e-01 1.72607116e-02
2.74999999e-02 2.72887490e+16 2.72887490e+16 1.00000000e+00 2.10942104e-02
3.24999988e-02 2.73287201e+16 2.73287201e+16 1.00000000e+00 2.49277595e-02
3.75000015e-02 2.73783098e+16 2.73783098e+16 1.00000000e+00 2.87605189e-02
4.25000004e-02 2.74373592e+16 2.74373592e+16 1.00000000e+00 3.25945094e-02
4.74999994e-02 2.75060701e+16 2.62236158e+16 9.53375589e-01 3.64288203e-02
5.24999984e-02 2.75848999e+16 1.94860961e+16 7.06404451e-01 4.02636789e-02
5.75000010e-02 2.76760305e+16 1.77869700e+16 6.42685011e-01 4.40989509e-02
6.25000000e-02 2.77785385e+16 1.08863418e+16 3.91897572e-01 4.79308702e-02
6.75000027e-02 2.78855798e+16 1.01141890e+16 3.62703198e-01 5.17657399e-02
7.24999979e-02 2.79941802e+16 2.69104294e+16 9.61286568e-01 5.55952899e-02
7.75000006e-02 2.81187493e+16 2.52918513e+16 8.99465729e-01 5.94257191e-02
8.25000033e-02 2.82578697e+16 2.23914770e+16 7.92397913e-01 6.32546023e-02
8.74999985e-02 2.84336499e+16 1.85545381e+16 6.52555622e-01 6.70777559e-02
9.25000012e-02 2.86467404e+16 1.63875980e+16 5.72058034e-01 7.09034279e-02
9.74999964e-02 2.87196303e+16 1.44007722e+16 5.01426100e-01 7.47298002e-02
1.02499999e-01 2.87209596e+16 1.24534357e+16 4.33600964e-01 7.85587803e-02
1.07500002e-01 2.87100117e+16 2.82085192e+16 9.82532486e-01 8.23760256e-02
1.12499997e-01 2.86928683e+16 2.80911656e+16 9.79029536e-01 8.61949399e-02
1.17500000e-01 2.86739211e+16 2.27978105e+16 7.95071256e-01 9.00148302e-02
1.22500002e-01 2.86516688e+16 2.27048525e+16 7.92444329e-01 9.38305482e-02
1.27499998e-01 2.86309392e+16 1.26736438e+16 4.42655540e-01 9.76336524e-02
1.32499993e-01 2.86085903e+16 1.20775698e+16 4.22165848e-01 1.01447895e-01
1.37500003e-01 2.85873603e+16 2.26967087e+16 7.93942095e-01 1.05253205e-01
1.42499998e-01 2.85669184e+16 2.60171036e+16 9.10742391e-01 1.09047398e-01
1.47499993e-01 2.85461887e+16 2.27720746e+16 7.97727320e-01 1.12867497e-01
1.52500004e-01 2.85283195e+16 1.73170829e+16 6.07013773e-01 1.16650902e-01
1.57499999e-01 2.85116400e+16 1.51857419e+16 5.32615516e-01 1.20462000e-01
1.62499994e-01 2.84965991e+16 1.11012507e+16 3.89564055e-01 1.24247603e-01
1.67500004e-01 2.84845087e+16 1.98253597e+16 6.96004972e-01 1.28030896e-01
1.72499999e-01 2.84738508e+16 2.33679160e+16 8.20679865e-01 1.31822005e-01
1.77499995e-01 2.84654992e+16 2.32632410e+16 8.17243387e-01 1.35591790e-01
1.82500005e-01 2.84599007e+16 1.87420947e+16 6.58543924e-01 1.39387086e-01
1.87500000e-01 2.84547510e+16 1.27059226e+16 4.46530794e-01 1.43149704e-01
1.92499995e-01 2.84524790e+16 1.22063815e+16 4.29009420e-01 1.46912798e-01
1.97500005e-01 2.84519894e+16 1.78101718e+16 6.25972813e-01 1.50690302e-01
2.02500001e-01 2.84522707e+16 1.79789184e+16 6.31897488e-01 1.54458702e-01
2.07499996e-01 2.84555198e+16 2.66384075e+16 9.36142008e-01 1.58232093e-01
2.12500006e-01 2.84601004e+16 1.71208911e+16 6.01575218e-01 1.61951199e-01
2.17500001e-01 2.84649494e+16 1.65183126e+16 5.80303600e-01 1.65718406e-01
2.22499996e-01 2.84723196e+16 1.20153593e+16 4.22001418e-01 1.69475496e-01
2.27500007e-01 2.84793097e+16 1.29030531e+16 4.53067623e-01 1.73205912e-01
2.32500002e-01 2.84705801e+16 2.19356272e+16 7.70466465e-01 1.76949203e-01
2.37499997e-01 2.84265310e+16 2.50699177e+16 8.81919703e-01 1.80673793e-01
2.42500007e-01 2.83494599e+16 1.53832349e+16 5.42628851e-01 1.84386909e-01
2.47500002e-01 2.82360105e+16 1.61773942e+16 5.72934841e-01 1.88115090e-01
2.52499998e-01 2.80841705e+16 1.29798943e+16 4.62178306e-01 1.91835493e-01
2.57499993e-01 2.78965900e+16 1.00864587e+16 3.61566008e-01 1.95540100e-01
2.62499988e-01 2.76709302e+16 2.19192085e+16 7.92138476e-01 1.99281499e-01
2.67500013e-01 2.74058191e+16 2.29761435e+16 8.38367334e-01 2.02927798e-01
2.72500008e-01 2.71036102e+16 1.69586659e+16 6.25697676e-01 2.06647098e-01
2.77500004e-01 2.67625898e+16 1.44347934e+16 5.39364595e-01 2.10337803e-01
2.82499999e-01 2.64043186e+16 1.15821036e+16 4.38644290e-01 2.14023292e-01
2.87499994e-01 2.60096004e+16 1.08198399e+16 4.15994085e-01 2.17664912e-01
2.92499989e-01 2.55784200e+16 1.88174727e+16 7.35677680e-01 2.21343204e-01
2.97500014e-01 2.51116000e+16 1.95529439e+16 7.78641898e-01 2.25038290e-01
3.02500010e-01 2.46198113e+16 1.61149640e+16 6.54552705e-01 2.28691697e-01
3.07500005e-01 2.41175213e+16 1.28680490e+16 5.33556033e-01 2.32336000e-01
3.12500000e-01 2.35820999e+16 1.05155162e+16 4.45910935e-01 2.35933796e-01
3.17499995e-01 2.30148400e+16 9.76124287e+15 4.24128210e-01 2.39619300e-01
3.22499990e-01 2.24470990e+16 1.59999843e+16 7.12786285e-01 2.43251503e-01
3.27499986e-01 2.18533605e+16 1.61780845e+16 7.40301907e-01 2.46820495e-01
3.32500011e-01 2.12320291e+16 1.41542309e+16 6.66645228e-01 2.50447989e-01
3.37500006e-01 2.06212096e+16 1.05358912e+16 5.10924987e-01 2.54071712e-01
3.42500001e-01 1.99841306e+16 7.47813565e+15 3.74203701e-01 2.57655412e-01
3.47499996e-01 1.93423616e+16 6.65240400e+15 3.43929254e-01 2.61272192e-01
3.52499992e-01 1.86977300e+16 1.12497764e+16 6.01665357e-01 2.64798105e-01
3.57499987e-01 1.80399901e+16 1.05175401e+16 5.83012524e-01 2.68438816e-01
3.62500012e-01 1.73939894e+16 1.01808376e+16 5.85307794e-01 2.71968991e-01
3.67500007e-01 1.67347205e+16 6.32554771e+15 3.77989445e-01 2.75484413e-01
3.72500002e-01 1.60964701e+16 5.41387357e+15 3.36339180e-01 2.79060900e-01
3.77499998e-01 1.54476799e+16 4.13574436e+15 2.67725923e-01 2.82612085e-01
3.82499993e-01 1.48232797e+16 7.65371452e+15 5.16330710e-01 2.86115319e-01
3.87499988e-01 1.41962896e+16 7.08180066e+15 4.98848702e-01 2.89688319e-01
3.92500013e-01 1.35939108e+16 7.27753760e+15 5.35352755e-01 2.93206602e-01
3.97500008e-01 1.29972690e+16 4.54859531e+15 3.49965467e-01 2.96608984e-01
4.02500004e-01 1.24227194e+16 3.55738027e+15 2.86360833e-01 3.00176680e-01
4.07499999e-01 1.18645100e+16 2.71758089e+15 2.29051254e-01 3.03647816e-01
4.12499994e-01 1.13247303e+16 5.45483784e+15 4.81674856e-01 3.07136506e-01
4.17499989e-01 1.08107902e+16 4.60766036e+15 4.26209394e-01 3.10528696e-01
4.22500014e-01 1.03112308e+16 5.07535787e+15 4.92216495e-01 3.13964188e-01
4.27500010e-01 9.84304928e+15 3.30983849e+15 3.36261497e-01 3.17510098e-01
4.32500005e-01 9.38236250e+15 2.42865202e+15 2.58852930e-01 3.20886701e-01
4.37500000e-01 8.95555710e+15 1.68895348e+15 1.88592787e-01 3.24294984e-01
4.42499995e-01 8.53633286e+15 3.85748129e+15 4.51889746e-01 3.27705592e-01
4.47499990e-01 8.14484874e+15 3.25511146e+15 3.99652782e-01 3.31089586e-01
4.52499986e-01 7.76286992e+15 3.58337358e+15 4.61604228e-01 3.34503591e-01
4.57500011e-01 7.40412204e+15 2.14984565e+15 2.90357944e-01 3.37925106e-01
4.62500006e-01 7.05681219e+15 1.77384381e+15 2.51366164e-01 3.41148674e-01
4.67500001e-01 6.72987069e+15 1.19401386e+15 1.77420029e-01 3.44551414e-01
4.72499996e-01 6.41412617e+15 2.67850441e+15 4.17594593e-01 3.47954005e-01
4.77499992e-01 6.11569091e+15 2.25446251e+15 3.68635784e-01 3.51238400e-01
4.82499987e-01 5.82879568e+15 2.48404298e+15 4.26167448e-01 3.54527503e-01
4.87500012e-01 5.55768875e+15 1.57239041e+15 2.82921639e-01 3.57786089e-01
4.92500007e-01 5.29645596e+15 1.13270035e+15 2.13860052e-01 3.61093819e-01
4.97500002e-01 5.05051164e+15 1.36415533e+15 2.70102402e-01 3.64400893e-01
5.02499998e-01 4.81264776e+15 1.64841108e+15 3.42516461e-01 3.67680013e-01
5.07499993e-01 4.58954300e+15 1.52794212e+15 3.32918139e-01 3.70916605e-01
5.12499988e-01 4.37169716e+15 1.66183560e+15 3.80135115e-01 3.74071002e-01
5.17499983e-01 4.16916878e+15 1.05478216e+15 2.52995794e-01 3.77293408e-01
5.22499979e-01 3.96988605e+15 7.72448875e+14 1.94577090e-01 3.80548507e-01
5.27499974e-01 3.78658893e+15 1.30095032e+15 3.43567877e-01 3.83769602e-01
5.32500029e-01 3.60605696e+15 9.24083145e+14 2.56258610e-01 3.86936009e-01
5.37500024e-01 3.43750607e+15 1.16757720e+15 3.39658222e-01 3.90015393e-01
5.42500019e-01 3.27445998e+15 1.13052111e+15 3.45254216e-01 3.93189013e-01
5.47500014e-01 3.11938294e+15 7.22923956e+14 2.31752231e-01 3.96284103e-01
5.52500010e-01 2.97174908e+15 5.51111427e+14 1.85450189e-01 3.99412900e-01
5.57500005e-01 2.82848507e+15 9.81080890e+14 3.46857369e-01 4.02552903e-01
5.62500000e-01 2.69509198e+15 5.94138978e+14 2.20452208e-01 4.05666590e-01
5.67499995e-01 2.56387777e+15 8.85688637e+14 3.45448853e-01 4.08630908e-01
5.72499990e-01 2.44190688e+15 7.67170925e+14 3.14168788e-01 4.11677986e-01
5.77499986e-01 2.32310083e+15 4.49711693e+14 1.93582511e-01 4.14768696e-01
5.82499981e-01 2.20987905e+15 3.13376258e+14 1.41806973e-01 4.17787701e-01
5.87499976e-01 2.10275693e+15 8.32876639e+14 3.96087929e-01 4.20788825e-01
5.92499971e-01 1.99766606e+15 4.05956270e+14 2.03215281e-01 4.23758000e-01
5.97500026e-01 1.90104607e+15 6.69456736e+14 3.52151768e-01 4.26599801e-01
6.02500021e-01 1.80648391e+15 4.42433346e+14 2.44914080e-01 4.29710597e-01
6.07500017e-01 1.71697800e+15 3.20052943e+14 1.86404801e-01 4.32585686e-01
6.12500012e-01 1.63207791e+15 5.05920390e+14 3.09985441e-01 4.35365915e-01
6.17500007e-01 1.54904398e+15 4.13532485e+14 2.66959809e-01 4.38392997e-01
6.22500002e-01 1.47273395e+15 2.40740042e+14 1.63464719e-01 4.41189677e-01
6.27499998e-01 1.39840605e+15 4.55165056e+14 3.25488477e-01 4.44174200e-01
6.32499993e-01 1.32768203e+15 3.02444570e+14 2.27798948e-01 4.46886599e-01
6.37499988e-01 1.26105810e+15 2.32952693e+14 1.84727962e-01 4.49670196e-01
6.42499983e-01 1.19593203e+15 4.21556435e+14 3.52491968e-01 4.52624321e-01
6.47499979e-01 1.13557607e+15 2.10497079e+14 1.85365899e-01 4.55230683e-01
6.52499974e-01 1.07745496e+15 1.76366014e+14 1.63687598e-01 4.57975894e-01
6.57500029e-01 1.02158703e+15 3.59212368e+14 3.51621896e-01 4.60847825e-01
6.62500024e-01 9.69994272e+14 1.99397667e+14 2.05565820e-01 4.63386506e-01
6.67500019e-01 9.19968506e+14 2.73757538e+14 2.97572728e-01 4.66051817e-01
6.72500014e-01 8.73370527e+14 1.90393398e+14 2.17998423e-01 4.68959808e-01
6.77500010e-01 8.29326577e+14 1.37153652e+14 1.65379545e-01 4.71590579e-01
6.82500005e-01 7.86509511e+14 1.88713454e+14 2.39937917e-01 4.73839819e-01
6.87500000e-01 7.47538655e+14 2.01891245e+14 2.70074656e-01 4.76700485e-01
6.92499995e-01 7.09631878e+14 1.64976993e+14 2.32482500e-01 4.79410499e-01
6.97499990e-01 6.73729038e+14 1.93604660e+14 2.87362796e-01 4.81734395e-01
7.02499986e-01 6.40283792e+14 1.14383671e+14 1.78645270e-01 4.84552920e-01
7.07499981e-01 6.07614258e+14 8.92485360e+13 1.46883545e-01 4.86794591e-01
7.12499976e-01 5.77447079e+14 1.52610138e+14 2.64284197e-01 4.89161402e-01
7.17499971e-01 5.48421119e+14 1.14072472e+14 2.08001602e-01 4.91902083e-01
7.22500026e-01 5.20595503e+14 1.83576849e+14 3.52628572e-01 4.94326591e-01
7.27500021e-01 4.94830799e+14 9.81866859e+13 1.98424767e-01 4.96563315e-01
7.32500017e-01 4.69577398e+14 6.74087803e+13 1.43552012e-01 4.99173582e-01
7.37500012e-01 4.46114998e+14 4.30220339e+13 9.64370937e-02 5.01340806e-01
7.42500007e-01 4.23513001e+14 1.23570945e+14 2.91776036e-01 5.03696024e-01
7.47500002e-01 4.01840999e+14 1.45505604e+14 3.62097457e-01 5.05976021e-01
7.52499998e-01 3.81646096e+14 8.98286153e+13 2.35371503e-01 5.08553088e-01
7.57499993e-01 3.61704496e+14 5.53113771e+13 1.52918688e-01 5.10622680e-01
7.62499988e-01 3.43434678e+14 3.43447464e+13 1.00003723e-01 5.12884796e-01
7.67499983e-01 3.25502317e+14 5.49573445e+13 1.68838566e-01 5.14958978e-01
7.72499979e-01 3.08667019e+14 1.21149415e+14 3.92492258e-01 5.17241120e-01
7.77499974e-01 2.92504688e+14 7.61354184e+13 2.60287858e-01 5.19652426e-01
7.82500029e-01 2.76952997e+14 5.10525801e+13 1.84336623e-01 5.21350801e-01
7.87500024e-01 2.62278000e+14 2.89498107e+13 1.10378342e-01 5.23659706e-01
7.92500019e-01 2.47937506e+14 2.00973004e+13 8.10579272e-02 5.25772512e-01
7.97500014e-01 2.34542493e+14 9.12027985e+13 3.88854050e-01 5.27716160e-01
8.02500010e-01 2.21383502e+14 5.98982120e+13 2.70563124e-01 5.29799163e-01
8.07500005e-01 2.09107697e+14 4.00124456e+13 1.91348507e-01 5.31620383e-01
8.12500000e-01 1.96409794e+14 2.46708674e+13 1.25609151e-01 5.33782125e-01
8.17499995e-01 1.83616395e+14 1.62210859e+13 8.83422526e-02 5.35582364e-01
8.22499990e-01 1.71232310e+14 4.56026340e+13 2.66320264e-01 5.37625134e-01
8.27499986e-01 1.59541694e+14 5.59128352e+13 3.50459079e-01 5.39251149e-01
8.32499981e-01 1.48393905e+14 2.86307669e+13 1.92937620e-01 5.41383803e-01
8.37499976e-01 1.37678306e+14 1.56963285e+13 1.14007275e-01 5.43106973e-01
8.42499971e-01 1.27709502e+14 2.13167512e+13 1.66915937e-01 5.44603109e-01
8.47500026e-01 1.18033293e+14 2.72414573e+13 2.30794690e-01 5.46682596e-01
8.52500021e-01 1.09014097e+14 3.28966914e+13 3.01765482e-01 5.48187852e-01
8.57500017e-01 1.00440495e+14 1.74733243e+13 1.73966928e-01 5.50063312e-01
8.62500012e-01 9.22026215e+13 9.27629566e+12 1.00607721e-01 5.51690817e-01
8.67500007e-01 8.45756739e+13 2.23110720e+13 2.63800109e-01 5.53120315e-01
8.72500002e-01 7.73200649e+13 1.38283349e+13 1.78845360e-01 5.55031359e-01
8.77499998e-01 7.03797920e+13 1.28875579e+13 1.83114465e-01 5.56258857e-01
8.82499993e-01 6.38366484e+13 1.40444035e+13 2.20005340e-01 5.58115125e-01
8.87499988e-01 5.76881594e+13 1.50589019e+13 2.61039735e-01 5.59371173e-01
8.92499983e-01 5.17688892e+13 9.37112703e+12 1.81018507e-01 5.60914695e-01
8.97499979e-01 4.60688720e+13 5.02348904e+12 1.09043022e-01 5.62137008e-01
9.02499974e-01 4.07086815e+13 4.24644721e+12 1.04313062e-01 5.63882887e-01
9.07500029e-01 3.56933005e+13 1.31298098e+13 3.67850818e-01 5.65096498e-01
9.12500024e-01 3.10382103e+13 6.57600227e+12 2.11867959e-01 5.66177487e-01
9.17500019e-01 2.67432808e+13 3.75017562e+12 1.40228705e-01 5.67514122e-01
9.22500014e-01 2.28218896e+13 2.96752411e+12 1.30029728e-01 5.68446100e-01
9.27500010e-01 1.92835999e+13 4.39010605e+12 2.27660087e-01 5.70106983e-01
9.32500005e-01 1.59957396e+13 3.88679541e+12 2.42989416e-01 5.70832849e-01
9.37500000e-01 1.29444505e+13 2.05054712e+12 1.58411291e-01 5.71695685e-01
9.42499995e-01 1.01811004e+13 2.21558468e+12 2.17617407e-01 5.72612643e-01
9.47499990e-01 7.73537608e+12 1.38013571e+12 1.78418695e-01 5.74309111e-01
9.52499986e-01 5.64006381e+12 8.06646881e+11 1.43020879e-01 5.74016213e-01
9.57499981e-01 3.91125402e+12 9.42757229e+11 2.41037075e-01 5.74899375e-01
9.62499976e-01 2.55398196e+12 5.65746656e+11 2.21515525e-01 5.76861620e-01
9.67499971e-01 1.63303994e+12 2.89458264e+11 1.77251185e-01 5.78849494e-01
9.72500026e-01 1.15404597e+12 2.29249353e+11 1.98648372e-01 5.81881642e-01
9.77500021e-01 9.13858167e+11 1.30898710e+11 1.43237446e-01 5.86777806e-01
9.82500017e-01 7.21950015e+11 1.04549459e+11 1.44815370e-01 5.57891786e-01
9.87500012e-01 5.75327109e+11 1.28934547e+11 2.24106503e-01 5.11362016e-01
9.92500007e-01 4.60459606e+11 8.80489281e+10 1.91219657e-01 4.82280821e-01
9.97500002e-01 3.64888588e+11 7.63488976e+10 2.09238930e-01 4.65504676e-01
