# pulse 104614  TRANSP M29  channel total (THNTX)  t_JET = 53.527 s
# equilibrium: TRANSP CDF (PSIRZ + boundary moments)  t_EQ = 53.529 s
# LOS R in [2.700, 3.100] m  (w_tor = 0.400 m)
# Rate_LOS = 4.4058e+15 n/s   Rate_tor = 2.0168e+17 n/s   rho_bnd = 0.30665110614486685
#     rhot           THNTX [n/m3/s]   THKM14 [n/m3/s]  f               DVOL [m3]
2.49999994e-03 2.72839601e+16 0.00000000e+00 0.00000000e+00 1.91790692e-03
7.49999983e-03 2.72628697e+16 0.00000000e+00 0.00000000e+00 5.75413462e-03
1.25000002e-02 2.72325515e+16 0.00000000e+00 0.00000000e+00 9.59060807e-03
1.75000001e-02 2.72392903e+16 0.00000000e+00 0.00000000e+00 1.34264808e-02
2.25000009e-02 2.72588496e+16 0.00000000e+00 0.00000000e+00 1.72607116e-02
2.74999999e-02 2.72887490e+16 8.21090919e+15 3.00889908e-01 2.10942104e-02
3.24999988e-02 2.73287201e+16 2.04511251e+16 7.48338196e-01 2.49277595e-02
3.75000015e-02 2.73783098e+16 2.73783098e+16 1.00000000e+00 2.87605189e-02
4.25000004e-02 2.74373592e+16 2.74373592e+16 1.00000000e+00 3.25945094e-02
4.74999994e-02 2.75060701e+16 2.75060701e+16 1.00000000e+00 3.64288203e-02
5.24999984e-02 2.75848999e+16 2.75051556e+16 9.97109132e-01 4.02636789e-02
5.75000010e-02 2.76760305e+16 2.74430167e+16 9.91580664e-01 4.40989509e-02
6.25000000e-02 2.77785385e+16 2.66302417e+16 9.58662446e-01 4.79308702e-02
6.75000027e-02 2.78855798e+16 2.70556272e+16 9.70237213e-01 5.17657399e-02
7.24999979e-02 2.79941802e+16 2.66242258e+16 9.51062886e-01 5.55952899e-02
7.75000006e-02 2.81187493e+16 2.46236727e+16 8.75702984e-01 5.94257191e-02
8.25000033e-02 2.82578697e+16 2.42127058e+16 8.56848234e-01 6.32546023e-02
8.74999985e-02 2.84336499e+16 2.31120902e+16 8.12842891e-01 6.70777559e-02
9.25000012e-02 2.86467404e+16 2.31888047e+16 8.09474461e-01 7.09034279e-02
9.74999964e-02 2.87196303e+16 2.20406897e+16 7.67443365e-01 7.47298002e-02
1.02499999e-01 2.87209596e+16 2.11373607e+16 7.35955936e-01 7.85587803e-02
1.07500002e-01 2.87100117e+16 2.04128092e+16 7.10999684e-01 8.23760256e-02
1.12499997e-01 2.86928683e+16 2.02067746e+16 7.04243799e-01 8.61949399e-02
1.17500000e-01 2.86739211e+16 2.00961762e+16 7.00852044e-01 9.00148302e-02
1.22500002e-01 2.86516688e+16 1.97042521e+16 6.87717432e-01 9.38305482e-02
1.27499998e-01 2.86309392e+16 1.95888325e+16 6.84184070e-01 9.76336524e-02
1.32499993e-01 2.86085903e+16 1.97851484e+16 6.91580682e-01 1.01447895e-01
1.37500003e-01 2.85873603e+16 1.96002521e+16 6.85626512e-01 1.05253205e-01
1.42499998e-01 2.85669184e+16 1.90663440e+16 6.67427397e-01 1.09047398e-01
1.47499993e-01 2.85461887e+16 1.88287668e+16 6.59589515e-01 1.12867497e-01
1.52500004e-01 2.85283195e+16 1.84751449e+16 6.47607192e-01 1.16650902e-01
1.57499999e-01 2.85116400e+16 1.83299435e+16 6.42893340e-01 1.20462000e-01
1.62499994e-01 2.84965991e+16 1.83034785e+16 6.42303961e-01 1.24247603e-01
1.67500004e-01 2.84845087e+16 1.84066203e+16 6.46197568e-01 1.28030896e-01
1.72499999e-01 2.84738508e+16 1.83514687e+16 6.44502524e-01 1.31822005e-01
1.77499995e-01 2.84654992e+16 1.80219309e+16 6.33114872e-01 1.35591790e-01
1.82500005e-01 2.84599007e+16 1.76590112e+16 6.20487450e-01 1.39387086e-01
1.87500000e-01 2.84547510e+16 1.77170081e+16 6.22637959e-01 1.43149704e-01
1.92499995e-01 2.84524790e+16 1.78356397e+16 6.26857143e-01 1.46912798e-01
1.97500005e-01 2.84519894e+16 1.78025814e+16 6.25706032e-01 1.50690302e-01
2.02500001e-01 2.84522707e+16 1.76098012e+16 6.18924283e-01 1.54458702e-01
2.07499996e-01 2.84555198e+16 1.75419752e+16 6.16470031e-01 1.58232093e-01
2.12500006e-01 2.84601004e+16 1.74994952e+16 6.14878194e-01 1.61951199e-01
2.17500001e-01 2.84649494e+16 1.74500592e+16 6.13036719e-01 1.65718406e-01
2.22499996e-01 2.84723196e+16 1.73772159e+16 6.10319641e-01 1.69475496e-01
2.27500007e-01 2.84793097e+16 1.72697942e+16 6.06397922e-01 1.73205912e-01
2.32500002e-01 2.84705801e+16 1.71193738e+16 6.01300489e-01 1.76949203e-01
2.37499997e-01 2.84265310e+16 1.69393628e+16 5.95899753e-01 1.80673793e-01
2.42500007e-01 2.83494599e+16 1.70558126e+16 6.01627428e-01 1.84386909e-01
2.47500002e-01 2.82360105e+16 1.70789410e+16 6.04863815e-01 1.88115090e-01
2.52499998e-01 2.80841705e+16 1.70078281e+16 6.05601938e-01 1.91835493e-01
2.57499993e-01 2.78965900e+16 1.68267795e+16 6.03184101e-01 1.95540100e-01
2.62499988e-01 2.76709302e+16 1.64579581e+16 5.94774298e-01 1.99281499e-01
2.67500013e-01 2.74058191e+16 1.61477107e+16 5.89207374e-01 2.02927798e-01
2.72500008e-01 2.71036102e+16 1.60357677e+16 5.91646928e-01 2.06647098e-01
2.77500004e-01 2.67625898e+16 1.58849067e+16 5.93548936e-01 2.10337803e-01
2.82499999e-01 2.64043186e+16 1.56634193e+16 5.93214297e-01 2.14023292e-01
2.87499994e-01 2.60096004e+16 1.53405369e+16 5.89802866e-01 2.17664912e-01
2.92499989e-01 2.55784200e+16 1.50928392e+16 5.90061434e-01 2.21343204e-01
2.97500014e-01 2.51116000e+16 1.47458655e+16 5.87213297e-01 2.25038290e-01
3.02500010e-01 2.46198113e+16 1.44345651e+16 5.86298770e-01 2.28691697e-01
3.07500005e-01 2.41175213e+16 1.42164742e+16 5.89466637e-01 2.32336000e-01
3.12500000e-01 2.35820999e+16 1.38491986e+16 5.87275884e-01 2.35933796e-01
3.17499995e-01 2.30148400e+16 1.34808256e+16 5.85744922e-01 2.39619300e-01
3.22499990e-01 2.24470990e+16 1.30514389e+16 5.81430988e-01 2.43251503e-01
3.27499986e-01 2.18533605e+16 1.27282344e+16 5.82438311e-01 2.46820495e-01
3.32500011e-01 2.12320291e+16 1.24564032e+16 5.86679828e-01 2.50447989e-01
3.37500006e-01 2.06212096e+16 1.18209390e+16 5.73241785e-01 2.54071712e-01
3.42500001e-01 1.99841306e+16 1.05811489e+16 5.29477570e-01 2.57655412e-01
3.47499996e-01 1.93423616e+16 9.74019991e+15 5.03568288e-01 2.61272192e-01
3.52499992e-01 1.86977300e+16 9.05231523e+15 4.84139800e-01 2.64798105e-01
3.57499987e-01 1.80399901e+16 8.54472105e+15 4.73654421e-01 2.68438816e-01
3.62500012e-01 1.73939894e+16 8.04070606e+15 4.62269228e-01 2.71968991e-01
3.67500007e-01 1.67347205e+16 7.56200372e+15 4.51875113e-01 2.75484413e-01
3.72500002e-01 1.60964701e+16 7.05921035e+15 4.38556423e-01 2.79060900e-01
3.77499998e-01 1.54476799e+16 6.61341897e+15 4.28117298e-01 2.82612085e-01
3.82499993e-01 1.48232797e+16 6.20534755e+15 4.18621768e-01 2.86115319e-01
3.87499988e-01 1.41962896e+16 5.86284977e+15 4.12984655e-01 2.89688319e-01
3.92500013e-01 1.35939108e+16 5.52767891e+15 4.06629041e-01 2.93206602e-01
3.97500008e-01 1.29972690e+16 5.16215591e+15 3.97172354e-01 2.96608984e-01
4.02500004e-01 1.24227194e+16 4.85842529e+15 3.91091929e-01 3.00176680e-01
4.07499999e-01 1.18645100e+16 4.52439641e+15 3.81338665e-01 3.03647816e-01
4.12499994e-01 1.13247303e+16 4.27407489e+15 3.77410743e-01 3.07136506e-01
4.17499989e-01 1.08107902e+16 4.05670875e+15 3.75246274e-01 3.10528696e-01
4.22500014e-01 1.03112308e+16 3.80859261e+15 3.69363531e-01 3.13964188e-01
4.27500010e-01 9.84304928e+15 3.55640186e+15 3.61310988e-01 3.17510098e-01
4.32500005e-01 9.38236250e+15 3.34399075e+15 3.56412444e-01 3.20886701e-01
4.37500000e-01 8.95555710e+15 3.14787118e+15 3.51499202e-01 3.24294984e-01
4.42499995e-01 8.53633286e+15 2.95787406e+15 3.46504068e-01 3.27705592e-01
4.47499990e-01 8.14484874e+15 2.80597829e+15 3.44509564e-01 3.31089586e-01
4.52499986e-01 7.76286992e+15 2.63741804e+15 3.39747808e-01 3.34503591e-01
4.57500011e-01 7.40412204e+15 2.46874792e+15 3.33428853e-01 3.37925106e-01
4.62500006e-01 7.05681219e+15 2.31852851e+15 3.28551823e-01 3.41148674e-01
4.67500001e-01 6.72987069e+15 2.20253042e+15 3.27276782e-01 3.44551414e-01
4.72499996e-01 6.41412617e+15 2.07865982e+15 3.24075294e-01 3.47954005e-01
4.77499992e-01 6.11569091e+15 1.96096139e+15 3.20644293e-01 3.51238400e-01
4.82499987e-01 5.82879568e+15 1.84145871e+15 3.15924387e-01 3.54527503e-01
4.87500012e-01 5.55768875e+15 1.73886875e+15 3.12876239e-01 3.57786089e-01
4.92500007e-01 5.29645596e+15 1.63610966e+15 3.08906498e-01 3.61093819e-01
4.97500002e-01 5.05051164e+15 1.54187249e+15 3.05290354e-01 3.64400893e-01
5.02499998e-01 4.81264776e+15 1.46508880e+15 3.04424689e-01 3.67680013e-01
5.07499993e-01 4.58954300e+15 1.38492167e+15 3.01755898e-01 3.70916605e-01
5.12499988e-01 4.37169716e+15 1.29486219e+15 2.96192108e-01 3.74071002e-01
5.17499983e-01 4.16916878e+15 1.22400231e+15 2.93584254e-01 3.77293408e-01
5.22499979e-01 3.96988605e+15 1.15878805e+15 2.91894536e-01 3.80548507e-01
5.27499974e-01 3.78658893e+15 1.09879759e+15 2.90181377e-01 3.83769602e-01
5.32500029e-01 3.60605696e+15 1.03705155e+15 2.87586015e-01 3.86936009e-01
5.37500024e-01 3.43750607e+15 9.74380797e+14 2.83455732e-01 3.90015393e-01
5.42500019e-01 3.27445998e+15 9.19780792e+14 2.80895414e-01 3.93189013e-01
5.47500014e-01 3.11938294e+15 8.75856509e+14 2.80778771e-01 3.96284103e-01
5.52500010e-01 2.97174908e+15 8.19578671e+14 2.75789998e-01 3.99412900e-01
5.57500005e-01 2.82848507e+15 7.78470724e+14 2.75225325e-01 4.02552903e-01
5.62500000e-01 2.69509198e+15 7.36316434e+14 2.73206421e-01 4.05666590e-01
5.67499995e-01 2.56387777e+15 6.92872810e+14 2.70244088e-01 4.08630908e-01
5.72499990e-01 2.44190688e+15 6.55481203e+14 2.68430057e-01 4.11677986e-01
5.77499986e-01 2.32310083e+15 6.17665569e+14 2.65879793e-01 4.14768696e-01
5.82499981e-01 2.20987905e+15 5.84387809e+14 2.64443345e-01 4.17787701e-01
5.87499976e-01 2.10275693e+15 5.55115626e+14 2.63994196e-01 4.20788825e-01
5.92499971e-01 1.99766606e+15 5.18306686e+14 2.59456120e-01 4.23758000e-01
5.97500026e-01 1.90104607e+15 4.89899700e+14 2.57700066e-01 4.26599801e-01
6.02500021e-01 1.80648391e+15 4.64604913e+14 2.57187407e-01 4.29710597e-01
6.07500017e-01 1.71697800e+15 4.37760636e+14 2.54959956e-01 4.32585686e-01
6.12500012e-01 1.63207791e+15 4.14621376e+14 2.54045088e-01 4.35365915e-01
6.17500007e-01 1.54904398e+15 3.88868189e+14 2.51037540e-01 4.38392997e-01
6.22500002e-01 1.47273395e+15 3.67852762e+14 2.49775434e-01 4.41189677e-01
6.27499998e-01 1.39840605e+15 3.49030002e+14 2.49591313e-01 4.44174200e-01
6.32499993e-01 1.32768203e+15 3.27867366e+14 2.46947204e-01 4.46886599e-01
6.37499988e-01 1.26105810e+15 3.08117861e+14 2.44332803e-01 4.49670196e-01
6.42499983e-01 1.19593203e+15 2.91069918e+14 2.43383327e-01 4.52624321e-01
6.47499979e-01 1.13557607e+15 2.74794304e+14 2.41986699e-01 4.55230683e-01
6.52499974e-01 1.07745496e+15 2.59805197e+14 2.41128592e-01 4.57975894e-01
6.57500029e-01 1.02158703e+15 2.43132199e+14 2.37994603e-01 4.60847825e-01
6.62500024e-01 9.69994272e+14 2.30629626e+14 2.37763905e-01 4.63386506e-01
6.67500019e-01 9.19968506e+14 2.17948318e+14 2.36908455e-01 4.66051817e-01
6.72500014e-01 8.73370527e+14 2.06124010e+14 2.36009807e-01 4.68959808e-01
6.77500010e-01 8.29326577e+14 1.93807528e+14 2.33692653e-01 4.71590579e-01
6.82500005e-01 7.86509511e+14 1.82582904e+14 2.32143289e-01 4.73839819e-01
6.87500000e-01 7.47538655e+14 1.72471750e+14 2.30719507e-01 4.76700485e-01
6.92499995e-01 7.09631878e+14 1.63785770e+14 2.30803850e-01 4.79410499e-01
6.97499990e-01 6.73729038e+14 1.53408304e+14 2.27700300e-01 4.81734395e-01
7.02499986e-01 6.40283792e+14 1.45471612e+14 2.27198648e-01 4.84552920e-01
7.07499981e-01 6.07614258e+14 1.37052341e+14 2.25558138e-01 4.86794591e-01
7.12499976e-01 5.77447079e+14 1.29593194e+14 2.24424364e-01 4.89161402e-01
7.17499971e-01 5.48421119e+14 1.22786248e+14 2.23890445e-01 4.91902083e-01
7.22500026e-01 5.20595503e+14 1.16563715e+14 2.23904576e-01 4.94326591e-01
7.27500021e-01 4.94830799e+14 1.10348565e+14 2.23002621e-01 4.96563315e-01
7.32500017e-01 4.69577398e+14 1.03781262e+14 2.21009918e-01 4.99173582e-01
7.37500012e-01 4.46114998e+14 9.75096929e+13 2.18575240e-01 5.01340806e-01
7.42500007e-01 4.23513001e+14 9.19241610e+13 2.17051568e-01 5.03696024e-01
7.47500002e-01 4.01840999e+14 8.73740546e+13 2.17434395e-01 5.05976021e-01
7.52499998e-01 3.81646096e+14 8.29899477e+13 2.17452631e-01 5.08553088e-01
7.57499993e-01 3.61704496e+14 7.77158447e+13 2.14860046e-01 5.10622680e-01
7.62499988e-01 3.43434678e+14 7.30254321e+13 2.12632669e-01 5.12884796e-01
7.67499983e-01 3.25502317e+14 6.90158067e+13 2.12028618e-01 5.14958978e-01
7.72499979e-01 3.08667019e+14 6.67259548e+13 2.16174553e-01 5.17241120e-01
7.77499974e-01 2.92504688e+14 6.23479463e+13 2.13151956e-01 5.19652426e-01
7.82500029e-01 2.76952997e+14 5.87523286e+13 2.12138266e-01 5.21350801e-01
7.87500024e-01 2.62278000e+14 5.48521887e+13 2.09137590e-01 5.23659706e-01
7.92500019e-01 2.47937506e+14 5.11863898e+13 2.06448756e-01 5.25772512e-01
7.97500014e-01 2.34542493e+14 4.86036317e+13 2.07227403e-01 5.27716160e-01
8.02500010e-01 2.21383502e+14 4.58831246e+13 2.07256296e-01 5.29799163e-01
8.07500005e-01 2.09107697e+14 4.31226258e+13 2.06222088e-01 5.31620383e-01
8.12500000e-01 1.96409794e+14 4.01649333e+13 2.04495573e-01 5.33782125e-01
8.17499995e-01 1.83616395e+14 3.78427106e+13 2.06096578e-01 5.35582364e-01
8.22499990e-01 1.71232310e+14 3.54581792e+13 2.07076452e-01 5.37625134e-01
8.27499986e-01 1.59541694e+14 3.27405200e+13 2.05216073e-01 5.39251149e-01
8.32499981e-01 1.48393905e+14 2.99425562e+13 2.01777534e-01 5.41383803e-01
8.37499976e-01 1.37678306e+14 2.75171437e+13 1.99865502e-01 5.43106973e-01
8.42499971e-01 1.27709502e+14 2.56708316e+13 2.01009566e-01 5.44603109e-01
8.47500026e-01 1.18033293e+14 2.36199133e+13 2.00112296e-01 5.46682596e-01
8.52500021e-01 1.09014097e+14 2.16023276e+13 1.98160864e-01 5.48187852e-01
8.57500017e-01 1.00440495e+14 1.99577551e+13 1.98702278e-01 5.50063312e-01
8.62500012e-01 9.22026215e+13 1.84882968e+13 2.00518125e-01 5.51690817e-01
8.67500007e-01 8.45756739e+13 1.68275911e+13 1.98964907e-01 5.53120315e-01
8.72500002e-01 7.73200649e+13 1.54443337e+13 1.99745483e-01 5.55031359e-01
8.77499998e-01 7.03797920e+13 1.37409508e+13 1.95240004e-01 5.56258857e-01
8.82499993e-01 6.38366484e+13 1.24596881e+13 1.95180800e-01 5.58115125e-01
8.87499988e-01 5.76881594e+13 1.12356323e+13 1.94764964e-01 5.59371173e-01
8.92499983e-01 5.17688892e+13 1.00353939e+13 1.93849897e-01 5.60914695e-01
8.97499979e-01 4.60688720e+13 9.00241099e+12 1.95412013e-01 5.62137008e-01
9.02499974e-01 4.07086815e+13 8.02627698e+12 1.97163767e-01 5.63882887e-01
9.07500029e-01 3.56933005e+13 6.91880841e+12 1.93840533e-01 5.65096498e-01
9.12500024e-01 3.10382103e+13 5.97609293e+12 1.92539869e-01 5.66177487e-01
9.17500019e-01 2.67432808e+13 5.06896436e+12 1.89541605e-01 5.67514122e-01
9.22500014e-01 2.28218896e+13 4.44955790e+12 1.94968864e-01 5.68446100e-01
9.27500010e-01 1.92835999e+13 3.70813622e+12 1.92294812e-01 5.70106983e-01
9.32500005e-01 1.59957396e+13 3.11757620e+12 1.94900410e-01 5.70832849e-01
9.37500000e-01 1.29444505e+13 2.52925599e+12 1.95393075e-01 5.71695685e-01
9.42499995e-01 1.01811004e+13 1.95932256e+12 1.92447031e-01 5.72612643e-01
9.47499990e-01 7.73537608e+12 1.44413545e+12 1.86692338e-01 5.74309111e-01
9.52499986e-01 5.64006381e+12 1.09739327e+12 1.94571074e-01 5.74016213e-01
9.57499981e-01 3.91125402e+12 7.79932743e+11 1.99407336e-01 5.74899375e-01
9.62499976e-01 2.55398196e+12 5.31616223e+11 2.08151910e-01 5.76861620e-01
9.67499971e-01 1.63303994e+12 3.72859900e+11 2.28322584e-01 5.78849494e-01
9.72500026e-01 1.15404597e+12 2.67513145e+11 2.31804584e-01 5.81881642e-01
9.77500021e-01 9.13858167e+11 1.98399619e+11 2.17101106e-01 5.86777806e-01
9.82500017e-01 7.21950015e+11 1.55313694e+11 2.15130813e-01 5.57891786e-01
9.87500012e-01 5.75327109e+11 1.06119854e+11 1.84451336e-01 5.11362016e-01
9.92500007e-01 4.60459606e+11 5.51383471e+10 1.19746328e-01 4.82280821e-01
9.97500002e-01 3.64888588e+11 1.47023270e+10 4.02926467e-02 4.65504676e-01
