# pulse 104614  TRANSP M30  channel total (THNTX)  t_JET = 53.400 s
# equilibrium: TRANSP CDF (PSIRZ + boundary moments)  t_EQ = 53.409 s
# LOS R in [2.700, 3.100] m  (w_tor = 0.400 m)
# Rate_LOS = 4.5759e+15 n/s   Rate_tor = 2.0945e+17 n/s   rho_bnd = 0.3069717866189019
#     rhot           THNTX [n/m3/s]   THKM14 [n/m3/s]  f               DVOL [m3]
2.49999994e-03 2.79493000e+16 0.00000000e+00 0.00000000e+00 1.92002300e-03
7.49999983e-03 2.79443006e+16 0.00000000e+00 0.00000000e+00 5.76050766e-03
1.25000002e-02 2.79297299e+16 0.00000000e+00 0.00000000e+00 9.60124563e-03
1.75000001e-02 2.79556307e+16 1.30928148e+16 4.68342673e-01 1.34413699e-02
2.25000009e-02 2.79949490e+16 2.79949490e+16 1.00000000e+00 1.72797702e-02
2.74999999e-02 2.80451615e+16 2.80451615e+16 1.00000000e+00 2.11175606e-02
3.24999988e-02 2.81058193e+16 2.48572233e+16 8.84415536e-01 2.49552298e-02
3.75000015e-02 2.81765596e+16 1.23293262e+16 4.37573868e-01 2.87921987e-02
4.25000004e-02 2.82572599e+16 2.18204857e+16 7.72208127e-01 3.26303579e-02
4.74999994e-02 2.83480211e+16 2.83480211e+16 1.00000000e+00 3.64687704e-02
5.24999984e-02 2.84486092e+16 2.84486092e+16 1.00000000e+00 4.03079502e-02
5.75000010e-02 2.85581803e+16 2.85581803e+16 1.00000000e+00 4.41471413e-02
6.25000000e-02 2.86762404e+16 2.44442032e+16 8.52420083e-01 4.79831807e-02
6.75000027e-02 2.87963599e+16 1.92091703e+16 6.67069395e-01 5.18221222e-02
7.24999979e-02 2.89157793e+16 1.46133930e+16 5.05377802e-01 5.56556731e-02
7.75000006e-02 2.90500786e+16 2.76048940e+16 9.50251955e-01 5.94903380e-02
8.25000033e-02 2.91976902e+16 2.91976902e+16 1.00000000e+00 6.33235574e-02
8.74999985e-02 2.93816393e+16 2.86668682e+16 9.75672862e-01 6.71504512e-02
9.25000012e-02 2.96073506e+16 1.69107771e+16 5.71168199e-01 7.09799752e-02
9.74999964e-02 2.96869815e+16 1.72772342e+16 5.81980158e-01 7.48105496e-02
1.02499999e-01 2.96909607e+16 1.29023236e+16 4.34553928e-01 7.86441192e-02
1.07500002e-01 2.96812885e+16 1.66647001e+16 5.61454739e-01 8.24650228e-02
1.12499997e-01 2.96657407e+16 2.96657407e+16 1.00000000e+00 8.62875357e-02
1.17500000e-01 2.96492201e+16 2.15194338e+16 7.25801006e-01 9.01125073e-02
1.22500002e-01 2.96296587e+16 1.86092829e+16 6.28062681e-01 9.39324349e-02
1.27499998e-01 2.96120300e+16 2.05101174e+16 6.92627875e-01 9.77387950e-02
1.32499993e-01 2.95931794e+16 9.80338702e+15 3.31271841e-01 1.01557098e-01
1.37500003e-01 2.95758814e+16 1.28374821e+16 4.34052395e-01 1.05366901e-01
1.42499998e-01 2.95595798e+16 2.95595798e+16 1.00000000e+00 1.09164394e-01
1.47499993e-01 2.95434887e+16 2.58494331e+16 8.74962105e-01 1.12990499e-01
1.52500004e-01 2.95299510e+16 1.71804031e+16 5.81795855e-01 1.16775706e-01
1.57499999e-01 2.95181398e+16 1.57354508e+16 5.33077316e-01 1.20592400e-01
1.62499994e-01 2.95074518e+16 1.14733210e+16 3.88827917e-01 1.24380998e-01
1.67500004e-01 2.95001117e+16 1.10774826e+16 3.75506463e-01 1.28168702e-01
1.72499999e-01 2.94937702e+16 2.94937702e+16 1.00000000e+00 1.31963700e-01
1.77499995e-01 2.94896299e+16 2.41427896e+16 8.18687440e-01 1.35736704e-01
1.82500005e-01 2.94885110e+16 1.94534290e+16 6.59695194e-01 1.39537007e-01
1.87500000e-01 2.94873492e+16 1.49277546e+16 5.06242678e-01 1.43303409e-01
1.92499995e-01 2.94889491e+16 1.20268941e+16 4.07844106e-01 1.47068709e-01
1.97500005e-01 2.94923400e+16 1.17060507e+16 3.96918342e-01 1.50853097e-01
2.02500001e-01 2.94961990e+16 2.57758372e+16 8.73869790e-01 1.54623598e-01
2.07499996e-01 2.95020509e+16 2.62859886e+16 8.90988517e-01 1.58403099e-01
2.12500006e-01 2.95083709e+16 1.88700183e+16 6.39480177e-01 1.62122905e-01
2.17500001e-01 2.95143689e+16 1.44843109e+16 4.90754554e-01 1.65897697e-01
2.22499996e-01 2.95218099e+16 1.29302193e+16 4.37988705e-01 1.69655204e-01
2.27500007e-01 2.95287291e+16 1.16217648e+16 3.93574839e-01 1.73390999e-01
2.32500002e-01 2.95182708e+16 1.77079295e+16 5.99897251e-01 1.77138209e-01
2.37499997e-01 2.94712410e+16 2.94712410e+16 1.00000000e+00 1.80867404e-01
2.42500007e-01 2.93889107e+16 2.02512361e+16 6.89077464e-01 1.84582591e-01
2.47500002e-01 2.92685400e+16 1.44276048e+16 4.92939000e-01 1.88315496e-01
2.52499998e-01 2.91083205e+16 1.25610499e+16 4.31527813e-01 1.92038506e-01
2.57499993e-01 2.89112996e+16 1.21611138e+16 4.20635321e-01 1.95746407e-01
2.62499988e-01 2.86753513e+16 1.68210039e+16 5.86601492e-01 1.99495092e-01
2.67500013e-01 2.83982185e+16 2.76828311e+16 9.74808722e-01 2.03140706e-01
2.72500008e-01 2.80836788e+16 1.76120524e+16 6.27127685e-01 2.06866592e-01
2.77500004e-01 2.77299603e+16 1.49126959e+16 5.37782807e-01 2.10559905e-01
2.82499999e-01 2.73583490e+16 1.19915332e+16 4.38313480e-01 2.14253202e-01
2.87499994e-01 2.69484394e+16 1.12123084e+16 4.16065221e-01 2.17893094e-01
2.92499989e-01 2.65016190e+16 1.45722249e+16 5.49861685e-01 2.21575901e-01
2.97500014e-01 2.60182784e+16 2.37952056e+16 9.14557269e-01 2.25277290e-01
3.02500010e-01 2.55100506e+16 1.76928205e+16 6.93562736e-01 2.28930295e-01
3.07500005e-01 2.49902414e+16 1.33931663e+16 5.35935850e-01 2.32581005e-01
3.12500000e-01 2.44359394e+16 1.14234671e+16 4.67486308e-01 2.36181408e-01
3.17499995e-01 2.38486413e+16 9.51776726e+15 3.99090546e-01 2.39869088e-01
3.22499990e-01 2.32621098e+16 1.12278219e+16 4.82665674e-01 2.43506297e-01
3.27499986e-01 2.26474098e+16 1.95940605e+16 8.65178875e-01 2.47077793e-01
3.32500011e-01 2.20052306e+16 1.54614687e+16 7.02626981e-01 2.50708699e-01
3.37500006e-01 2.13731488e+16 1.21523012e+16 5.68577952e-01 2.54339486e-01
3.42500001e-01 2.07132400e+16 7.94128977e+15 3.83391964e-01 2.57922590e-01
3.47499996e-01 2.00496117e+16 6.89930313e+15 3.44111558e-01 2.61542916e-01
3.52499992e-01 1.93821308e+16 6.81620851e+15 3.51674879e-01 2.65070826e-01
3.57499987e-01 1.87021001e+16 1.45538826e+16 7.78195097e-01 2.68721700e-01
3.62500012e-01 1.80331697e+16 9.98844459e+15 5.53892897e-01 2.72249401e-01
3.67500007e-01 1.73511009e+16 8.04539575e+15 4.63682148e-01 2.75765002e-01
3.72500002e-01 1.66904899e+16 5.25479818e+15 3.14837864e-01 2.79350400e-01
3.77499998e-01 1.60191800e+16 4.27336901e+15 2.66765777e-01 2.82902420e-01
3.82499993e-01 1.53726704e+16 4.04373787e+15 2.63047197e-01 2.86407918e-01
3.87499988e-01 1.47239800e+16 1.01799600e+16 6.91386430e-01 2.89985687e-01
3.92500013e-01 1.41005000e+16 7.69198490e+15 5.45511498e-01 2.93511808e-01
3.97500008e-01 1.34828590e+16 5.16402151e+15 3.83006415e-01 2.96907097e-01
4.02500004e-01 1.28881296e+16 3.91082453e+15 3.03443918e-01 3.00488681e-01
4.07499999e-01 1.23104607e+16 2.93835578e+15 2.38687718e-01 3.03960085e-01
4.12499994e-01 1.17514300e+16 2.32089310e+15 1.97498781e-01 3.07442695e-01
4.17499989e-01 1.12195197e+16 7.01251973e+15 6.25028513e-01 3.10841799e-01
4.22500014e-01 1.07021501e+16 5.25195051e+15 4.90737885e-01 3.14280808e-01
4.27500010e-01 1.02177401e+16 3.76226612e+15 3.68209221e-01 3.17831010e-01
4.32500005e-01 9.74107065e+15 2.86609029e+15 2.94227441e-01 3.21211398e-01
4.37500000e-01 9.29923233e+15 1.82822046e+15 1.96599073e-01 3.24625403e-01
4.42499995e-01 8.86535796e+15 2.14573883e+15 2.42036344e-01 3.28031600e-01
4.47499990e-01 8.46009183e+15 4.31975316e+15 5.10603579e-01 3.31423104e-01
4.52499986e-01 8.06477391e+15 3.94500959e+15 4.89165553e-01 3.34843189e-01
4.57500011e-01 7.69295429e+15 2.58910575e+15 3.36555458e-01 3.38259310e-01
4.62500006e-01 7.33288893e+15 1.78071104e+15 2.42838949e-01 3.41479093e-01
4.67500001e-01 6.99351296e+15 1.41562244e+15 2.02419363e-01 3.44900578e-01
4.72499996e-01 6.66564429e+15 1.81626219e+15 2.72481116e-01 3.48307580e-01
4.77499992e-01 6.35525130e+15 2.73039307e+15 4.29627869e-01 3.51579607e-01
4.82499987e-01 6.05696635e+15 2.73588053e+15 4.51691552e-01 3.54875416e-01
4.87500012e-01 5.77474191e+15 1.84088995e+15 3.18783069e-01 3.58142674e-01
4.92500007e-01 5.50270405e+15 1.25869197e+15 2.28740626e-01 3.61445308e-01
4.97500002e-01 5.24628967e+15 8.85201194e+14 1.68728997e-01 3.64756197e-01
5.02499998e-01 4.99844106e+15 1.46072956e+15 2.92237027e-01 3.68044496e-01
5.07499993e-01 4.76593301e+15 1.89192168e+15 3.96967745e-01 3.71278197e-01
5.12499988e-01 4.53926611e+15 1.94001899e+15 4.27386044e-01 3.74429822e-01
5.17499983e-01 4.32858320e+15 1.20473108e+15 2.78319954e-01 3.77652913e-01
5.22499979e-01 4.12152283e+15 8.66045449e+14 2.10127539e-01 3.80915314e-01
5.27499974e-01 3.93119001e+15 6.30434302e+14 1.60367293e-01 3.84140700e-01
5.32500029e-01 3.74374287e+15 1.21566853e+15 3.24720091e-01 3.87309492e-01
5.37500024e-01 3.56891193e+15 1.29284820e+15 3.62252761e-01 3.90382409e-01
5.42500019e-01 3.39983706e+15 1.19964613e+15 3.52854006e-01 3.93558413e-01
5.47500014e-01 3.23920904e+15 8.80665852e+14 2.71876820e-01 3.96669805e-01
5.52500010e-01 3.08623116e+15 6.38522338e+14 2.06893880e-01 3.99794012e-01
5.57500005e-01 2.93778796e+15 4.73758897e+14 1.61263816e-01 4.02926326e-01
5.62500000e-01 2.79956088e+15 9.13851116e+14 3.26426591e-01 4.06058699e-01
5.67499995e-01 2.66349095e+15 9.20663582e+14 3.45660488e-01 4.09012318e-01
5.72499990e-01 2.53697195e+15 8.50031208e+14 3.35057393e-01 4.12048906e-01
5.77499986e-01 2.41375095e+15 5.75740674e+14 2.38525302e-01 4.15162891e-01
5.82499981e-01 2.29624601e+15 3.90145141e+14 1.69905637e-01 4.18176502e-01
5.87499976e-01 2.18505186e+15 4.97338290e+14 2.27609376e-01 4.21171188e-01
5.92499971e-01 2.07594399e+15 6.01062030e+14 2.89536728e-01 4.24153894e-01
5.97500026e-01 1.97556403e+15 6.66374039e+14 3.37308247e-01 4.26993400e-01
6.02500021e-01 1.87732403e+15 5.50436101e+14 2.93202501e-01 4.30114806e-01
6.07500017e-01 1.78431799e+15 3.58938911e+14 2.01163084e-01 4.32974607e-01
6.12500012e-01 1.69610809e+15 2.76756377e+14 1.63171427e-01 4.35743093e-01
6.17500007e-01 1.60989400e+15 4.83942052e+14 3.00604917e-01 4.38792318e-01
6.22500002e-01 1.53062689e+15 3.63267553e+14 2.37332530e-01 4.41585004e-01
6.27499998e-01 1.45347492e+15 4.52805825e+14 3.11533292e-01 4.44588602e-01
6.32499993e-01 1.38001500e+15 3.50685055e+14 2.54116843e-01 4.47285801e-01
6.37499988e-01 1.31084402e+15 2.69938817e+14 2.05927489e-01 4.50068176e-01
6.42499983e-01 1.24324405e+15 1.77743633e+14 1.42967612e-01 4.53025311e-01
6.47499979e-01 1.18057994e+15 3.99055190e+14 3.38016238e-01 4.55633819e-01
6.52499974e-01 1.12022001e+15 2.12895362e+14 1.90047811e-01 4.58364010e-01
6.57500029e-01 1.06219299e+15 3.44872473e+14 3.24679673e-01 4.61261183e-01
6.62500024e-01 1.00855898e+15 2.27135646e+14 2.25208094e-01 4.63795692e-01
6.67500019e-01 9.56507202e+14 1.64701797e+14 1.72190859e-01 4.66443598e-01
6.72500014e-01 9.08034671e+14 2.56895217e+14 2.82913446e-01 4.69385803e-01
6.77500010e-01 8.62186834e+14 1.80668748e+14 2.09547097e-01 4.71995801e-01
6.82500005e-01 8.17584606e+14 1.28715900e+14 1.57434348e-01 4.74223107e-01
6.87500000e-01 7.76988306e+14 2.87147138e+14 3.69564298e-01 4.77119893e-01
6.92499995e-01 7.37481587e+14 1.29092887e+14 1.75045573e-01 4.79810089e-01
6.97499990e-01 7.00055980e+14 1.57093841e+14 2.24401828e-01 4.82139915e-01
7.02499986e-01 6.65195072e+14 1.73073949e+14 2.60185254e-01 4.84985799e-01
7.07499981e-01 6.31146652e+14 1.07811186e+14 1.70817963e-01 4.87196416e-01
7.12499976e-01 5.99719168e+14 1.46327940e+14 2.43994102e-01 4.89548177e-01
7.17499971e-01 5.69522461e+14 1.43070105e+14 2.51210644e-01 4.92317587e-01
7.22500026e-01 5.40593206e+14 7.83164547e+13 1.44871326e-01 4.94748175e-01
7.27500021e-01 5.13811098e+14 1.70576900e+14 3.31983682e-01 4.96966302e-01
7.32500017e-01 4.87594584e+14 9.60008280e+13 1.96886576e-01 4.99601692e-01
7.37500012e-01 4.63231718e+14 5.79524107e+13 1.25104583e-01 5.01727164e-01
7.42500007e-01 4.39791632e+14 1.12560580e+14 2.55940705e-01 5.04099190e-01
7.47500002e-01 4.17324188e+14 8.66780708e+13 2.07699609e-01 5.06382167e-01
7.52499998e-01 3.96404208e+14 1.25888572e+14 3.17576276e-01 5.08967519e-01
7.57499993e-01 3.75738805e+14 7.88188794e+13 2.09770400e-01 5.11035383e-01
7.62499988e-01 3.56791121e+14 5.05068809e+13 1.41558682e-01 5.13310909e-01
7.67499983e-01 3.38179383e+14 2.97457087e+13 8.79583742e-02 5.15338600e-01
7.72499979e-01 3.20709805e+14 9.59683077e+13 2.99237211e-01 5.17666578e-01
7.77499974e-01 3.03937790e+14 9.94473903e+13 3.27196530e-01 5.20096481e-01
7.82500029e-01 2.87772305e+14 6.44717111e+13 2.24037234e-01 5.21743834e-01
7.87500024e-01 2.72527620e+14 4.23990120e+13 1.55576936e-01 5.24064600e-01
7.92500019e-01 2.57617205e+14 2.82976113e+13 1.09843639e-01 5.26176810e-01
7.97500014e-01 2.43693290e+14 4.39740322e+13 1.80448268e-01 5.28135180e-01
8.02500010e-01 2.30001908e+14 8.25021050e+13 3.58701829e-01 5.30210197e-01
8.07500005e-01 2.17239597e+14 5.23875688e+13 2.41151105e-01 5.32026827e-01
8.12500000e-01 2.04049098e+14 3.23394554e+13 1.58488598e-01 5.34217477e-01
8.17499995e-01 1.90760100e+14 2.38638308e+13 1.25098649e-01 5.35954595e-01
8.22499990e-01 1.77897109e+14 1.34896630e+13 7.58284554e-02 5.38073361e-01
8.27499986e-01 1.65756898e+14 6.89645838e+13 4.16058606e-01 5.39642096e-01
8.32499981e-01 1.54179293e+14 3.78781108e+13 2.45675733e-01 5.41815162e-01
8.37499976e-01 1.43062307e+14 2.21978925e+13 1.55162411e-01 5.43536186e-01
8.42499971e-01 1.32706705e+14 1.35656906e+13 1.02223098e-01 5.44980645e-01
8.47500026e-01 1.22663905e+14 1.84446663e+13 1.50367512e-01 5.47124624e-01
8.52500021e-01 1.13308200e+14 3.67721041e+13 3.24531712e-01 5.48596501e-01
8.57500017e-01 1.04408004e+14 3.01458816e+13 2.88731519e-01 5.50498128e-01
8.62500012e-01 9.58543251e+13 1.16640290e+13 1.21684953e-01 5.52091837e-01
8.67500007e-01 8.79429199e+13 8.36065722e+12 9.50691339e-02 5.53543210e-01
8.72500002e-01 8.04088174e+13 1.93842947e+13 2.41071755e-01 5.55447519e-01
8.77499998e-01 7.32020888e+13 1.29736411e+13 1.77230477e-01 5.56665838e-01
8.82499993e-01 6.64132890e+13 1.96895988e+13 2.96470768e-01 5.58548391e-01
8.87499988e-01 6.00281616e+13 8.55939132e+12 1.42589596e-01 5.59772193e-01
8.92499983e-01 5.38821179e+13 1.16868180e+13 2.16896040e-01 5.61320126e-01
8.97499979e-01 4.79636404e+13 9.14014881e+12 1.90564117e-01 5.62540829e-01
9.02499974e-01 4.23970399e+13 5.07427900e+12 1.19684747e-01 5.64329147e-01
9.07500029e-01 3.71856800e+13 8.14039210e+12 2.18912014e-01 5.65533876e-01
9.12500024e-01 3.23460908e+13 8.30595986e+12 2.56784040e-01 5.66575289e-01
9.17500019e-01 2.78794003e+13 5.87747027e+12 2.10817672e-01 5.67900181e-01
9.22500014e-01 2.37922691e+13 3.58674231e+12 1.50752427e-01 5.68885803e-01
9.27500010e-01 2.01020890e+13 2.16472179e+12 1.07686409e-01 5.70537686e-01
9.32500005e-01 1.66716097e+13 4.68613558e+12 2.81084770e-01 5.71246386e-01
9.37500000e-01 1.34883102e+13 2.73066700e+12 2.02446931e-01 5.72108686e-01
9.42499995e-01 1.06034396e+13 1.73559164e+12 1.63681947e-01 5.73037505e-01
9.47499990e-01 8.05149816e+12 1.49643393e+12 1.85857824e-01 5.74756622e-01
9.52499986e-01 5.86555798e+12 1.13610301e+12 1.93690525e-01 5.74383676e-01
9.57499981e-01 4.06204790e+12 6.01977281e+11 1.48195515e-01 5.75308502e-01
9.62499976e-01 2.64811001e+12 6.32146593e+11 2.38716138e-01 5.77330351e-01
9.67499971e-01 1.69018694e+12 3.72645302e+11 2.20475791e-01 5.79314649e-01
9.72500026e-01 1.19250498e+12 1.90428896e+11 1.59688134e-01 5.82357883e-01
9.77500021e-01 9.41776634e+11 1.71684951e+11 1.82299013e-01 5.87240994e-01
9.82500017e-01 7.41133386e+11 1.36182876e+11 1.83749482e-01 5.56258142e-01
9.87500012e-01 5.87779211e+11 1.43732398e+11 2.44534675e-01 5.09120703e-01
9.92500007e-01 4.66844811e+11 1.23416021e+11 2.64361986e-01 4.80053306e-01
9.97500002e-01 3.67584805e+11 2.57537165e+10 7.00619726e-02 4.63385105e-01
