# pulse 104614  TRANSP M30  channel total (THNTX)  t_JET = 53.527 s
# equilibrium: TRANSP CDF (PSIRZ + boundary moments)  t_EQ = 53.529 s
# LOS R in [2.700, 3.100] m  (w_tor = 0.400 m)
# Rate_LOS = 4.5751e+15 n/s   Rate_tor = 2.0942e+17 n/s   rho_bnd = 0.30705438829759885
#     rhot           THNTX [n/m3/s]   THKM14 [n/m3/s]  f               DVOL [m3]
2.49999994e-03 2.78508894e+16 2.78508894e+16 1.00000000e+00 1.91790692e-03
7.49999983e-03 2.78465708e+16 2.78465708e+16 1.00000000e+00 5.75413462e-03
1.25000002e-02 2.78359107e+16 2.78359107e+16 1.00000000e+00 9.59060807e-03
1.75000001e-02 2.78647600e+16 2.78647600e+16 1.00000000e+00 1.34264808e-02
2.25000009e-02 2.79070590e+16 2.79070590e+16 1.00000000e+00 1.72607116e-02
2.74999999e-02 2.79602715e+16 2.79602715e+16 1.00000000e+00 2.10942104e-02
3.24999988e-02 2.80241183e+16 2.80241183e+16 1.00000000e+00 2.49277595e-02
3.75000015e-02 2.80981098e+16 2.80981098e+16 1.00000000e+00 2.87605189e-02
4.25000004e-02 2.81821602e+16 2.81821602e+16 1.00000000e+00 3.25945094e-02
4.74999994e-02 2.82764304e+16 2.82764304e+16 1.00000000e+00 3.64288203e-02
5.24999984e-02 2.83807015e+16 2.83807015e+16 1.00000000e+00 4.02636789e-02
5.75000010e-02 2.84949197e+16 2.84949197e+16 1.00000000e+00 4.40989509e-02
6.25000000e-02 2.86182390e+16 2.83304085e+16 9.89942411e-01 4.79308702e-02
6.75000027e-02 2.87442898e+16 2.70844777e+16 9.42255937e-01 5.17657399e-02
7.24999979e-02 2.88702505e+16 2.48158399e+16 8.59564412e-01 5.55952899e-02
7.75000006e-02 2.90115699e+16 2.38067398e+16 8.20594675e-01 5.94257191e-02
8.25000033e-02 2.91668996e+16 2.32177250e+16 7.96029928e-01 6.32546023e-02
8.74999985e-02 2.93594000e+16 2.26088050e+16 7.70070402e-01 6.70777559e-02
9.25000012e-02 2.95911994e+16 2.22307172e+16 7.51261107e-01 7.09034279e-02
9.74999964e-02 2.96765297e+16 2.22402317e+16 7.49421580e-01 7.47298002e-02
1.02499999e-01 2.96900502e+16 2.17663278e+16 7.33118593e-01 7.85587803e-02
1.07500002e-01 2.96873208e+16 2.11719280e+16 7.13163985e-01 8.23760256e-02
1.12499997e-01 2.96774896e+16 2.10752428e+16 7.10142372e-01 8.61949399e-02
1.17500000e-01 2.96653005e+16 2.04188682e+16 6.88308153e-01 9.00148302e-02
1.22500002e-01 2.96490397e+16 2.00536705e+16 6.76368299e-01 9.38305482e-02
1.27499998e-01 2.96339107e+16 2.01603079e+16 6.80312097e-01 9.76336524e-02
1.32499993e-01 2.96166492e+16 2.02160272e+16 6.82589953e-01 1.01447895e-01
1.37500003e-01 2.96001694e+16 1.98679310e+16 6.71210042e-01 1.05253205e-01
1.42499998e-01 2.95839989e+16 1.94526921e+16 6.57540997e-01 1.09047398e-01
1.47499993e-01 2.95671497e+16 1.90857466e+16 6.45505124e-01 1.12867497e-01
1.52500004e-01 2.95530794e+16 1.90744898e+16 6.45431549e-01 1.16650902e-01
1.57499999e-01 2.95400506e+16 1.92286874e+16 6.50936171e-01 1.20462000e-01
1.62499994e-01 2.95287012e+16 1.90436424e+16 6.44919745e-01 1.24247603e-01
1.67500004e-01 2.95204699e+16 1.89012433e+16 6.40275828e-01 1.28030896e-01
1.72499999e-01 2.95134905e+16 1.87706885e+16 6.36003676e-01 1.31822005e-01
1.77499995e-01 2.95088799e+16 1.84709004e+16 6.25943799e-01 1.35591790e-01
1.82500005e-01 2.95070588e+16 1.82582334e+16 6.18775104e-01 1.39387086e-01
1.87500000e-01 2.95054504e+16 1.83693821e+16 6.22575893e-01 1.43149704e-01
1.92499995e-01 2.95068097e+16 1.86014893e+16 6.30413436e-01 1.46912798e-01
1.97500005e-01 2.95097196e+16 1.83802642e+16 6.22854586e-01 1.50690302e-01
2.02500001e-01 2.95132994e+16 1.81074366e+16 6.13534813e-01 1.54458702e-01
2.07499996e-01 2.95191212e+16 1.79623019e+16 6.08497174e-01 1.58232093e-01
2.12500006e-01 2.95258300e+16 1.79961520e+16 6.09505373e-01 1.61951199e-01
2.17500001e-01 2.95322510e+16 1.79236043e+16 6.06916293e-01 1.65718406e-01
2.22499996e-01 2.95406412e+16 1.80655507e+16 6.11549038e-01 1.69475496e-01
2.27500007e-01 2.95484194e+16 1.79785815e+16 6.08444779e-01 1.73205912e-01
2.32500002e-01 2.95392711e+16 1.78900436e+16 6.05635919e-01 1.76949203e-01
2.37499997e-01 2.94933300e+16 1.76527188e+16 5.98532577e-01 1.80673793e-01
2.42500007e-01 2.94126211e+16 1.75242321e+16 5.95806542e-01 1.84386909e-01
2.47500002e-01 2.92938309e+16 1.74569165e+16 5.95924671e-01 1.88115090e-01
2.52499998e-01 2.91351598e+16 1.75828364e+16 6.03492018e-01 1.91835493e-01
2.57499993e-01 2.89389893e+16 1.73563750e+16 5.99757469e-01 1.95540100e-01
2.62499988e-01 2.87029701e+16 1.70532721e+16 5.94129181e-01 1.99281499e-01
2.67500013e-01 2.84259103e+16 1.68043279e+16 5.91162348e-01 2.02927798e-01
2.72500008e-01 2.81101701e+16 1.65892918e+16 5.90152663e-01 2.06647098e-01
2.77500004e-01 2.77543192e+16 1.63032326e+16 5.87412449e-01 2.10337803e-01
2.82499999e-01 2.73802104e+16 1.62223694e+16 5.92485199e-01 2.14023292e-01
2.87499994e-01 2.69679300e+16 1.60171301e+16 5.93932499e-01 2.17664912e-01
2.92499989e-01 2.65179205e+16 1.56420607e+16 5.89867548e-01 2.21343204e-01
2.97500014e-01 2.60308497e+16 1.52153255e+16 5.84511287e-01 2.25038290e-01
3.02500010e-01 2.55188703e+16 1.48563722e+16 5.82172015e-01 2.28691697e-01
3.07500005e-01 2.49952988e+16 1.45799354e+16 5.83307107e-01 2.32336000e-01
3.12500000e-01 2.44377905e+16 1.43514662e+16 5.87265293e-01 2.35933796e-01
3.17499995e-01 2.38476899e+16 1.40113392e+16 5.87534442e-01 2.39619300e-01
3.22499990e-01 2.32587597e+16 1.35781117e+16 5.83784857e-01 2.43251503e-01
3.27499986e-01 2.26419294e+16 1.31927537e+16 5.82669149e-01 2.46820495e-01
3.32500011e-01 2.19982405e+16 1.27479973e+16 5.79500768e-01 2.50447989e-01
3.37500006e-01 2.13644494e+16 1.19049171e+16 5.57230231e-01 2.54071712e-01
3.42500001e-01 2.07035591e+16 1.08546092e+16 5.24287112e-01 2.57655412e-01
3.47499996e-01 2.00394412e+16 1.01139956e+16 5.04704471e-01 2.61272192e-01
3.52499992e-01 1.93711894e+16 9.41054851e+15 4.85801274e-01 2.64798105e-01
3.57499987e-01 1.86907098e+16 8.74978462e+15 4.68135491e-01 2.68438816e-01
3.62500012e-01 1.80211395e+16 8.20959997e+15 4.55553878e-01 2.71968991e-01
3.67500007e-01 1.73389902e+16 7.68184379e+15 4.43038707e-01 2.75484413e-01
3.72500002e-01 1.66775201e+16 7.29055253e+15 4.37148477e-01 2.79060900e-01
3.77499998e-01 1.60061598e+16 6.88904367e+15 4.30399529e-01 2.82612085e-01
3.82499993e-01 1.53590199e+16 6.44620257e+15 4.19701426e-01 2.86115319e-01
3.87499988e-01 1.47102093e+16 6.03305925e+15 4.10127356e-01 2.89688319e-01
3.92500013e-01 1.40858402e+16 5.64480431e+15 4.00743172e-01 2.93206602e-01
3.97500008e-01 1.34684000e+16 5.28541769e+15 3.92430999e-01 2.96608984e-01
4.02500004e-01 1.28729995e+16 5.02252279e+15 3.90159481e-01 3.00176680e-01
4.07499999e-01 1.22957204e+16 4.74421236e+15 3.85842569e-01 3.03647816e-01
4.12499994e-01 1.17368507e+16 4.43940075e+15 3.78244631e-01 3.07136506e-01
4.17499989e-01 1.12057501e+16 4.15839018e+15 3.71094318e-01 3.10528696e-01
4.22500014e-01 1.06889506e+16 3.89269767e+15 3.64179592e-01 3.13964188e-01
4.27500010e-01 1.02056100e+16 3.65200130e+15 3.57842529e-01 3.17510098e-01
4.32500005e-01 9.73003796e+15 3.45862627e+15 3.55458662e-01 3.20886701e-01
4.37500000e-01 9.28900602e+15 3.28932161e+15 3.54109105e-01 3.24294984e-01
4.42499995e-01 8.85648670e+15 3.08365480e+15 3.48180368e-01 3.27705592e-01
4.47499990e-01 8.45214828e+15 2.88710098e+15 3.41581913e-01 3.31089586e-01
4.52499986e-01 8.05812369e+15 2.70368242e+15 3.35522576e-01 3.34503591e-01
4.57500011e-01 7.68730104e+15 2.55137911e+15 3.31895303e-01 3.37925106e-01
4.62500006e-01 7.32841411e+15 2.41746297e+15 3.29875323e-01 3.41148674e-01
4.67500001e-01 6.98982520e+15 2.29045591e+15 3.27684291e-01 3.44551414e-01
4.72499996e-01 6.66295403e+15 2.15853352e+15 3.23960440e-01 3.47954005e-01
4.77499992e-01 6.35337976e+15 2.02900349e+15 3.19358131e-01 3.51238400e-01
4.82499987e-01 6.05588027e+15 1.89884045e+15 3.13553170e-01 3.54527503e-01
4.87500012e-01 5.77421899e+15 1.78630916e+15 3.09359440e-01 3.57786089e-01
4.92500007e-01 5.50293812e+15 1.69950206e+15 3.08835393e-01 3.61093819e-01
4.97500002e-01 5.24706491e+15 1.61871549e+15 3.08499231e-01 3.64400893e-01
5.02499998e-01 4.99976606e+15 1.52071222e+15 3.04156676e-01 3.67680013e-01
5.07499993e-01 4.76763596e+15 1.42495824e+15 2.98881511e-01 3.70916605e-01
5.12499988e-01 4.54129924e+15 1.34062142e+15 2.95206581e-01 3.74071002e-01
5.17499983e-01 4.33077498e+15 1.26863023e+15 2.92933767e-01 3.77293408e-01
5.22499979e-01 4.12383298e+15 1.20189135e+15 2.91450056e-01 3.80548507e-01
5.27499974e-01 3.93349292e+15 1.14148134e+15 2.90195348e-01 3.83769602e-01
5.32500029e-01 3.74601813e+15 1.07562592e+15 2.87138471e-01 3.86936009e-01
5.37500024e-01 3.57115605e+15 1.01330068e+15 2.83745843e-01 3.90015393e-01
5.42500019e-01 3.40193515e+15 9.54121025e+14 2.80464202e-01 3.93189013e-01
5.47500014e-01 3.24111493e+15 8.99890408e+14 2.77648411e-01 3.96284103e-01
5.52500010e-01 3.08794190e+15 8.52587518e+14 2.76102189e-01 3.99412900e-01
5.57500005e-01 2.93935321e+15 8.11618685e+14 2.76121523e-01 4.02552903e-01
5.62500000e-01 2.80092588e+15 7.66977864e+14 2.73830118e-01 4.05666590e-01
5.67499995e-01 2.66473810e+15 7.18394951e+14 2.69593080e-01 4.08630908e-01
5.72499990e-01 2.53817508e+15 6.75307434e+14 2.66060226e-01 4.11677986e-01
5.77499986e-01 2.41483892e+15 6.41078646e+14 2.65474703e-01 4.14768696e-01
5.82499981e-01 2.29732083e+15 6.07441674e+14 2.64413079e-01 4.17787701e-01
5.87499976e-01 2.18609889e+15 5.76586430e+14 2.63751302e-01 4.20788825e-01
5.92499971e-01 2.07698498e+15 5.40866248e+14 2.60409321e-01 4.23758000e-01
5.97500026e-01 1.97663401e+15 5.08611378e+14 2.57311862e-01 4.26599801e-01
6.02500021e-01 1.87841307e+15 4.80514650e+14 2.55808829e-01 4.29710597e-01
6.07500017e-01 1.78544300e+15 4.56183471e+14 2.55501559e-01 4.32585686e-01
6.12500012e-01 1.69723498e+15 4.29579668e+14 2.53105594e-01 4.35365915e-01
6.17500007e-01 1.61095298e+15 4.05195727e+14 2.51525484e-01 4.38392997e-01
6.22500002e-01 1.53165097e+15 3.82618121e+14 2.49807645e-01 4.41189677e-01
6.27499998e-01 1.45439793e+15 3.59980839e+14 2.47511930e-01 4.44174200e-01
6.32499993e-01 1.38087789e+15 3.41162390e+14 2.47061954e-01 4.46886599e-01
6.37499988e-01 1.31161201e+15 3.20614536e+14 2.44443123e-01 4.49670196e-01
6.42499983e-01 1.24389407e+15 3.02306563e+14 2.43032402e-01 4.52624321e-01
6.47499979e-01 1.18112795e+15 2.86499321e+14 2.42564169e-01 4.55230683e-01
6.52499974e-01 1.12067803e+15 2.70064839e+14 2.40983433e-01 4.57975894e-01
6.57500029e-01 1.06255202e+15 2.53212722e+14 2.38306187e-01 4.60847825e-01
6.62500024e-01 1.00885601e+15 2.39393522e+14 2.37292061e-01 4.63386506e-01
6.67500019e-01 9.56780000e+14 2.25751136e+14 2.35948845e-01 4.66051817e-01
6.72500014e-01 9.08257472e+14 2.13948111e+14 2.35558878e-01 4.68959808e-01
6.77500010e-01 8.62389168e+14 2.02122267e+14 2.34374775e-01 4.71590579e-01
6.82500005e-01 8.17791637e+14 1.88851570e+14 2.30928713e-01 4.73839819e-01
6.87500000e-01 7.77184331e+14 1.79376684e+14 2.30803269e-01 4.76700485e-01
6.92499995e-01 7.37685665e+14 1.69390645e+14 2.29624422e-01 4.79410499e-01
6.97499990e-01 7.00265695e+14 1.60150851e+14 2.28700123e-01 4.81734395e-01
7.02499986e-01 6.65409016e+14 1.51764978e+14 2.28077730e-01 4.84552920e-01
7.07499981e-01 6.31378312e+14 1.41962109e+14 2.24844766e-01 4.86794591e-01
7.12499976e-01 5.99962841e+14 1.34868537e+14 2.24794817e-01 4.89161402e-01
7.17499971e-01 5.69762644e+14 1.27867453e+14 2.24422317e-01 4.91902083e-01
7.22500026e-01 5.40817282e+14 1.20487127e+14 2.22787124e-01 4.94326591e-01
7.27500021e-01 5.14036014e+14 1.13480100e+14 2.20762938e-01 4.96563315e-01
7.32500017e-01 4.87800911e+14 1.07453400e+14 2.20281261e-01 4.99173582e-01
7.37500012e-01 4.63425327e+14 1.01485839e+14 2.18990704e-01 5.01340806e-01
7.42500007e-01 4.39965612e+14 9.66570427e+13 2.19692267e-01 5.03696024e-01
7.47500002e-01 4.17470922e+14 9.07929289e+13 2.17483240e-01 5.05976021e-01
7.52499998e-01 3.96526782e+14 8.50979471e+13 2.14608321e-01 5.08553088e-01
7.57499993e-01 3.75835811e+14 8.06705375e+13 2.14643031e-01 5.10622680e-01
7.62499988e-01 3.56864001e+14 7.65257808e+13 2.14439620e-01 5.12884796e-01
7.67499983e-01 3.38245586e+14 7.27095670e+13 2.14960875e-01 5.14958978e-01
7.72499979e-01 3.20748896e+14 6.81965625e+13 2.12616671e-01 5.17241120e-01
7.77499974e-01 3.03953695e+14 6.39902422e+13 2.10526285e-01 5.19652426e-01
7.82500029e-01 2.87780995e+14 6.01098873e+13 2.08873721e-01 5.21350801e-01
7.87500024e-01 2.72524902e+14 5.71056475e+13 2.09542860e-01 5.23659706e-01
7.92500019e-01 2.57599505e+14 5.40782603e+13 2.09931538e-01 5.25772512e-01
7.97500014e-01 2.43664400e+14 5.09333046e+13 2.09030555e-01 5.27716160e-01
8.02500010e-01 2.29966793e+14 4.75528254e+13 2.06781270e-01 5.29799163e-01
8.07500005e-01 2.17197603e+14 4.46450180e+13 2.05550233e-01 5.31620383e-01
8.12500000e-01 2.03992408e+14 4.15614484e+13 2.03740173e-01 5.33782125e-01
8.17499995e-01 1.90701900e+14 3.92445196e+13 2.05789872e-01 5.35582364e-01
8.22499990e-01 1.77833792e+14 3.64373339e+13 2.04895445e-01 5.37625134e-01
8.27499986e-01 1.65699201e+14 3.37019849e+13 2.03392562e-01 5.39251149e-01
8.32499981e-01 1.54122704e+14 3.10408269e+13 2.01403338e-01 5.41383803e-01
8.37499976e-01 1.43008184e+14 2.87167597e+13 2.00805010e-01 5.43106973e-01
8.42499971e-01 1.32663201e+14 2.68932282e+13 2.02718070e-01 5.44603109e-01
8.47500026e-01 1.22624001e+14 2.46219577e+13 2.00792321e-01 5.46682596e-01
8.52500021e-01 1.13274897e+14 2.25197498e+13 1.98806182e-01 5.48187852e-01
8.57500017e-01 1.04381505e+14 2.06232800e+13 1.97575998e-01 5.50063312e-01
8.62500012e-01 9.58352159e+13 1.90546855e+13 1.98827595e-01 5.51690817e-01
8.67500007e-01 8.79265956e+13 1.75874067e+13 2.00023743e-01 5.53120315e-01
8.72500002e-01 8.03979374e+13 1.59134753e+13 1.97933875e-01 5.55031359e-01
8.77499998e-01 7.31954115e+13 1.42692252e+13 1.94946990e-01 5.56258857e-01
8.82499993e-01 6.64077525e+13 1.29539684e+13 1.95067110e-01 5.58115125e-01
8.87499988e-01 6.00251417e+13 1.18053578e+13 1.96673552e-01 5.59371173e-01
8.92499983e-01 5.38795804e+13 1.05065554e+13 1.95000691e-01 5.60914695e-01
8.97499979e-01 4.79608722e+13 9.36658622e+12 1.95296411e-01 5.62137008e-01
9.02499974e-01 4.23930217e+13 8.22492037e+12 1.94015903e-01 5.63882887e-01
9.07500029e-01 3.71813180e+13 7.24910077e+12 1.94966213e-01 5.65096498e-01
9.12500024e-01 3.23419908e+13 6.23429403e+12 1.92761604e-01 5.66177487e-01
9.17500019e-01 2.78747509e+13 5.35187180e+12 1.91997117e-01 5.67514122e-01
9.22500014e-01 2.37923195e+13 4.59643752e+12 1.93189972e-01 5.68446100e-01
9.27500010e-01 2.01013697e+13 3.88933784e+12 1.93486210e-01 5.70106983e-01
9.32500005e-01 1.66709103e+13 3.20522717e+12 1.92264676e-01 5.70832849e-01
9.37500000e-01 1.34875898e+13 2.57594403e+12 1.90986237e-01 5.71695685e-01
9.42499995e-01 1.06034102e+13 2.02563791e+12 1.91036456e-01 5.72612643e-01
9.47499990e-01 8.05197316e+12 1.53655678e+12 1.90829844e-01 5.74309111e-01
9.52499986e-01 5.86657615e+12 1.09977741e+12 1.87464951e-01 5.74016213e-01
9.57499981e-01 4.06349703e+12 7.55673575e+11 1.85966317e-01 5.74899375e-01
9.62499976e-01 2.64970201e+12 4.92251577e+11 1.85776203e-01 5.76861620e-01
9.67499971e-01 1.69092304e+12 3.09170612e+11 1.82841326e-01 5.78849494e-01
9.72500026e-01 1.19166901e+12 2.18426802e+11 1.83294858e-01 5.81881642e-01
9.77500021e-01 9.40097602e+11 1.62869126e+11 1.73247039e-01 5.86777806e-01
9.82500017e-01 7.39551347e+11 1.42728502e+11 1.92993364e-01 5.57891786e-01
9.87500012e-01 5.86243178e+11 1.27670205e+11 2.17776871e-01 5.11362016e-01
9.92500007e-01 4.65952899e+11 1.03105203e+11 2.21278166e-01 4.82280821e-01
9.97500002e-01 3.66536196e+11 6.20613915e+10 1.69318589e-01 4.65504676e-01
