# pulse 104614  TRANSP M29  channel total (THNTX)  t_JET = 53.309 s
# equilibrium: TRANSP CDF (PSIRZ + boundary moments)  t_EQ = 53.309 s
# LOS R in [2.600, 3.160] m  (w_tor = 0.400 m)
# Rate_LOS = 5.5765e+15 n/s   Rate_tor = 2.5569e+17 n/s   rho_bnd = 0.35850638107574057
# real LOS (_KM3.los): Rate_det = 1.8215e+08 n/s   Rate_chord = 1.8541e+15 n/s   rho_50 = 0.2528
#     rhot           THNTX [n/m3/s]   THKM14 [n/m3/s]  f               DVOL [m3]       f_det           THKM14_det [n/m3/s]
2.49999994e-03 2.72066701e+16 2.72066701e+16 1.00000000e+00 1.92002300e-03 6.87196215e-10 1.86963207e+07
7.49999983e-03 2.71868295e+16 2.71868295e+16 1.00000000e+00 5.76050766e-03 6.87196215e-10 1.86826863e+07
1.25000002e-02 2.71517009e+16 2.71517009e+16 1.00000000e+00 9.60124563e-03 6.87196215e-10 1.86585461e+07
1.75000001e-02 2.71557790e+16 2.71557790e+16 1.00000000e+00 1.34413699e-02 6.87196215e-10 1.86613485e+07
2.25000009e-02 2.71726582e+16 2.71726582e+16 1.00000000e+00 1.72797702e-02 6.87196215e-10 1.86729479e+07
2.74999999e-02 2.72000494e+16 2.72000494e+16 1.00000000e+00 2.11175606e-02 6.87196215e-10 1.86917710e+07
3.24999988e-02 2.72373318e+16 2.72373318e+16 1.00000000e+00 2.49552298e-02 6.87196215e-10 1.87173913e+07
3.75000015e-02 2.72842092e+16 2.72842092e+16 1.00000000e+00 2.87921987e-02 6.87196215e-10 1.87496053e+07
4.25000004e-02 2.73404196e+16 2.73404196e+16 1.00000000e+00 3.26303579e-02 6.87196215e-10 1.87882329e+07
4.74999994e-02 2.74061691e+16 2.74061691e+16 1.00000000e+00 3.64687704e-02 6.87196215e-10 1.88334157e+07
5.24999984e-02 2.74820204e+16 2.74820204e+16 1.00000000e+00 4.03079502e-02 6.87196215e-10 1.88855404e+07
5.75000010e-02 2.75705204e+16 2.75705204e+16 1.00000000e+00 4.41471413e-02 6.87196215e-10 1.89463572e+07
6.25000000e-02 2.76709496e+16 2.76709496e+16 1.00000000e+00 4.79831807e-02 6.87196215e-10 1.90153718e+07
6.75000027e-02 2.77763094e+16 2.77763094e+16 1.00000000e+00 5.18221222e-02 6.87196215e-10 1.90877747e+07
7.24999979e-02 2.78831381e+16 2.78831381e+16 1.00000000e+00 5.56556731e-02 6.87196215e-10 1.91611870e+07
7.75000006e-02 2.80057895e+16 2.80057895e+16 1.00000000e+00 5.94903380e-02 6.87196215e-10 1.92454726e+07
8.25000033e-02 2.81426315e+16 2.81426315e+16 1.00000000e+00 6.33235574e-02 6.87196215e-10 1.93395098e+07
8.74999985e-02 2.83149499e+16 2.83149499e+16 1.00000000e+00 6.71504512e-02 6.87196215e-10 1.94579264e+07
9.25000012e-02 2.85292193e+16 2.85292193e+16 1.00000000e+00 7.09799752e-02 6.87196215e-10 1.96051715e+07
9.74999964e-02 2.86076712e+16 2.86076712e+16 1.00000000e+00 7.48105496e-02 6.87196215e-10 1.96590834e+07
1.02499999e-01 2.86091401e+16 2.86091401e+16 1.00000000e+00 7.86441192e-02 6.87196215e-10 1.96600928e+07
1.07500002e-01 2.85987312e+16 2.85987312e+16 1.00000000e+00 8.24650228e-02 6.87196215e-10 1.96529399e+07
1.12499997e-01 2.85821892e+16 2.85821892e+16 1.00000000e+00 8.62875357e-02 6.87196215e-10 1.96415722e+07
1.17500000e-01 2.85642598e+16 2.85642598e+16 1.00000000e+00 9.01125073e-02 6.87196215e-10 1.96292512e+07
1.22500002e-01 2.85430191e+16 2.85430191e+16 1.00000000e+00 9.39324349e-02 7.07175921e-10 2.01849358e+07
1.27499998e-01 2.85234297e+16 2.85234297e+16 1.00000000e+00 9.77387950e-02 7.07175921e-10 2.01710827e+07
1.32499993e-01 2.85024595e+16 2.68090045e+16 9.40585652e-01 1.01557098e-01 7.05805309e-10 2.01171873e+07
1.37500003e-01 2.84826984e+16 2.58526935e+16 9.07663071e-01 1.05366901e-01 7.05805309e-10 2.01032397e+07
1.42499998e-01 2.84640496e+16 2.48531850e+16 8.73142974e-01 1.09164394e-01 7.05805309e-10 2.00900774e+07
1.47499993e-01 2.84455512e+16 2.41170171e+16 8.47830892e-01 1.12990499e-01 7.17611916e-10 2.04128665e+07
1.52500004e-01 2.84294301e+16 2.33093283e+16 8.19901359e-01 1.16775706e-01 6.97139491e-10 1.98192784e+07
1.57499999e-01 2.84149109e+16 2.30893674e+16 8.12579264e-01 1.20592400e-01 7.09512700e-10 2.01607402e+07
1.62499994e-01 2.84013302e+16 2.30528362e+16 8.11681567e-01 1.24380998e-01 6.97139491e-10 1.97996889e+07
1.67500004e-01 2.83906916e+16 2.26047314e+16 7.96202210e-01 1.28168702e-01 7.03924153e-10 1.99848935e+07
1.72499999e-01 2.83812491e+16 2.21033219e+16 7.78800179e-01 1.31963700e-01 6.89371752e-10 1.95652314e+07
1.77499995e-01 2.83738081e+16 2.17948210e+16 7.68131685e-01 1.35736704e-01 6.82077358e-10 1.93531321e+07
1.82500005e-01 2.83694208e+16 2.15492225e+16 7.59593319e-01 1.39537007e-01 6.78448452e-10 1.92471896e+07
1.87500000e-01 2.83652504e+16 2.13765679e+16 7.53618163e-01 1.43303409e-01 6.71028803e-10 1.90339000e+07
1.92499995e-01 2.83636698e+16 2.11776846e+16 7.46648254e-01 1.47068709e-01 6.66441870e-10 1.89027371e+07
1.97500005e-01 2.83641702e+16 2.09378338e+16 7.38178967e-01 1.50853097e-01 6.56675385e-10 1.86260524e+07
2.02500001e-01 2.83653105e+16 2.07380456e+16 7.31105890e-01 1.54623598e-01 6.49233774e-10 1.84157176e+07
2.07499996e-01 2.83695496e+16 2.04079628e+16 7.19361535e-01 1.58403099e-01 6.35781456e-10 1.80368336e+07
2.12500006e-01 2.83748689e+16 2.02853666e+16 7.14906090e-01 1.62122905e-01 6.32937074e-10 1.79595065e+07
2.17500001e-01 2.83812599e+16 2.01536045e+16 7.10102531e-01 1.65897697e-01 6.23375418e-10 1.76921797e+07
2.22499996e-01 2.83899400e+16 2.01807922e+16 7.10843072e-01 1.69655204e-01 6.14841280e-10 1.74553070e+07
2.27500007e-01 2.83988800e+16 2.00421157e+16 7.05736130e-01 1.73390999e-01 6.05414829e-10 1.71931031e+07
2.32500002e-01 2.83923903e+16 1.97933564e+16 6.97135965e-01 1.77138209e-01 5.99562882e-10 1.70230233e+07
2.37499997e-01 2.83509009e+16 1.95500325e+16 6.89573590e-01 1.80867404e-01 5.89582006e-10 1.67151810e+07
2.42500007e-01 2.82762307e+16 1.95132250e+16 6.90092862e-01 1.84582591e-01 5.80953670e-10 1.64271800e+07
2.47500002e-01 2.81656203e+16 1.94982806e+16 6.92272367e-01 1.88315496e-01 5.72796991e-10 1.61331825e+07
2.52499998e-01 2.80163895e+16 1.93365820e+16 6.90188220e-01 1.92038506e-01 5.65635966e-10 1.58470775e+07
2.57499993e-01 2.78314804e+16 1.89661118e+16 6.81462556e-01 1.95746407e-01 5.50520449e-10 1.53217991e+07
2.62499988e-01 2.76085394e+16 1.86127298e+16 6.74165683e-01 1.99495092e-01 5.46400720e-10 1.50853258e+07
2.67500013e-01 2.73455113e+16 1.83412714e+16 6.70723293e-01 2.03140706e-01 5.33135443e-10 1.45788613e+07
2.72500008e-01 2.70455508e+16 1.81513144e+16 6.71138647e-01 2.06866592e-01 5.23344069e-10 1.41541286e+07
2.77500004e-01 2.67086493e+16 1.79990023e+16 6.73901632e-01 2.10559905e-01 5.18119498e-10 1.38382720e+07
2.82499999e-01 2.63529100e+16 1.76447050e+16 6.69554329e-01 2.14253202e-01 5.06929008e-10 1.33590545e+07
2.87499994e-01 2.59597401e+16 1.72548972e+16 6.64679119e-01 2.17893094e-01 4.92929117e-10 1.27963118e+07
2.92499989e-01 2.55305999e+16 1.68164418e+16 6.58677894e-01 2.21575901e-01 4.91397842e-10 1.25456817e+07
2.97500014e-01 2.50658908e+16 1.64894193e+16 6.57842940e-01 2.25277290e-01 4.76910115e-10 1.19541769e+07
3.02500010e-01 2.45770398e+16 1.62034134e+16 6.59290685e-01 2.28930295e-01 4.65138357e-10 1.14317239e+07
3.07500005e-01 2.40764506e+16 1.58445494e+16 6.58093240e-01 2.32581005e-01 4.61075812e-10 1.11010690e+07
3.12500000e-01 2.35427494e+16 1.53866401e+16 6.53561731e-01 2.36181408e-01 4.49589000e-10 1.05845612e+07
3.17499995e-01 2.29771602e+16 1.49003217e+16 6.48484040e-01 2.39869088e-01 4.39460319e-10 1.00975502e+07
3.22499990e-01 2.24120606e+16 1.44725663e+16 6.45749024e-01 2.43506297e-01 4.35821142e-10 9.76764987e+06
3.27499986e-01 2.18199801e+16 1.41452427e+16 6.48270192e-01 2.47077793e-01 4.24613032e-10 9.26504789e+06
3.32500011e-01 2.12009700e+16 1.37511751e+16 6.48610657e-01 2.50708699e-01 4.13249575e-10 8.76129185e+06
3.37500006e-01 2.05920188e+16 1.33316624e+16 6.47418910e-01 2.54339486e-01 4.09442674e-10 8.43125125e+06
3.42500001e-01 1.99561511e+16 1.28348722e+16 6.43153690e-01 2.57922590e-01 4.00838276e-10 7.99918920e+06
3.47499996e-01 1.93161988e+16 1.23575724e+16 6.39751771e-01 2.61542916e-01 3.88586446e-10 7.50601305e+06
3.52499992e-01 1.86730403e+16 1.19223656e+16 6.38480149e-01 2.65070826e-01 3.86193142e-10 7.21140013e+06
3.57499987e-01 1.80174200e+16 1.15257048e+16 6.39697848e-01 2.68721700e-01 3.77373305e-10 6.79929333e+06
3.62500012e-01 1.73727905e+16 1.11024084e+16 6.39068803e-01 2.72249401e-01 3.65624270e-10 6.35191385e+06
3.67500007e-01 1.67150603e+16 1.06471901e+16 6.36981853e-01 2.75765002e-01 3.65230440e-10 6.10484883e+06
3.72500002e-01 1.60784495e+16 1.01601491e+16 6.31910997e-01 2.79350400e-01 3.55874870e-10 5.72191613e+06
3.77499998e-01 1.54311099e+16 9.72290477e+15 6.30084604e-01 2.82902420e-01 3.45556800e-10 5.33232496e+06
3.82499993e-01 1.48081099e+16 9.37512845e+15 6.33107705e-01 2.86407918e-01 3.45356872e-10 5.11408251e+06
3.87499988e-01 1.41825908e+16 8.97330173e+15 6.32698344e-01 2.89985687e-01 3.37379970e-10 4.78492207e+06
3.92500013e-01 1.35819998e+16 8.58814171e+15 6.32317910e-01 2.93511808e-01 3.29581433e-10 4.47637495e+06
3.97500008e-01 1.29865906e+16 8.18566189e+15 6.30316465e-01 2.96907097e-01 3.28476159e-10 4.26578540e+06
4.02500004e-01 1.24135099e+16 7.78668017e+15 6.27274657e-01 3.00488681e-01 3.22035760e-10 3.99759410e+06
4.07499999e-01 1.18565793e+16 7.42642754e+15 6.26354982e-01 3.03960085e-01 3.16251632e-10 3.74966257e+06
4.12499994e-01 1.13179099e+16 7.10362188e+15 6.27644321e-01 3.07442695e-01 3.13736131e-10 3.55083727e+06
4.17499989e-01 1.08049802e+16 6.77750433e+15 6.27257449e-01 3.10841799e-01 3.08290057e-10 3.33106797e+06
4.22500014e-01 1.03063796e+16 6.46499761e+15 6.27281145e-01 3.14280808e-01 3.04367171e-10 3.13692361e+06
4.27500010e-01 9.83933950e+15 6.13772481e+15 6.23794393e-01 3.17831010e-01 3.01072212e-10 2.96235171e+06
4.32500005e-01 9.37974257e+15 5.83943806e+15 6.22558457e-01 3.21211398e-01 2.96560006e-10 2.78165652e+06
4.37500000e-01 8.95408017e+15 5.35014143e+15 5.97508770e-01 3.24625403e-01 2.93230755e-10 2.62561169e+06
4.42499995e-01 8.53584914e+15 4.84883604e+15 5.68055498e-01 3.28031600e-01 2.89528626e-10 2.47137267e+06
4.47499990e-01 8.14539796e+15 4.49237029e+15 5.51522505e-01 3.31423104e-01 2.85239913e-10 2.32339260e+06
4.52499986e-01 7.76434900e+15 4.15971320e+15 5.35745264e-01 3.34843189e-01 2.83576777e-10 2.20178906e+06
4.57500011e-01 7.40619007e+15 3.85972907e+15 5.21149071e-01 3.38259310e-01 2.79452092e-10 2.06967531e+06
4.62500006e-01 7.05912127e+15 3.60886311e+15 5.11234043e-01 3.41479093e-01 2.76188811e-10 1.94965031e+06
4.67500001e-01 6.73220823e+15 3.38958986e+15 5.03488566e-01 3.44900578e-01 2.75410274e-10 1.85411931e+06
4.72499996e-01 6.41620977e+15 3.17235892e+15 4.94428804e-01 3.48307580e-01 2.70384747e-10 1.73484525e+06
4.77499992e-01 6.11731387e+15 2.97884608e+15 4.86953285e-01 3.51579607e-01 2.66967258e-10 1.63312251e+06
4.82499987e-01 5.82992204e+15 2.78666102e+15 4.77992845e-01 3.54875416e-01 2.66967258e-10 1.55639830e+06
4.87500012e-01 5.55819395e+15 2.60445583e+15 4.68579515e-01 3.58142674e-01 2.62292215e-10 1.45787100e+06
4.92500007e-01 5.29613330e+15 2.45791963e+15 4.64097011e-01 3.61445308e-01 2.58108401e-10 1.36697650e+06
4.97500002e-01 5.04928220e+15 2.31055743e+15 4.57601167e-01 3.64756197e-01 2.58108401e-10 1.30326215e+06
5.02499998e-01 4.81053088e+15 2.17706736e+15 4.52562808e-01 3.68044496e-01 2.55912873e-10 1.23107678e+06
5.07499993e-01 4.58674160e+15 2.04474166e+15 4.45793951e-01 3.71278197e-01 2.50498745e-10 1.14897301e+06
5.12499988e-01 4.36836909e+15 1.91574001e+15 4.38548109e-01 3.74429822e-01 2.50498745e-10 1.09427097e+06
5.17499983e-01 4.16551806e+15 1.80719239e+15 4.33845771e-01 3.77652913e-01 2.49817664e-10 1.04061999e+06
5.22499979e-01 3.96608689e+15 1.70762521e+15 4.30556683e-01 3.80915314e-01 2.44281039e-10 9.68839826e+05
5.27499974e-01 3.78273581e+15 1.61022022e+15 4.25676098e-01 3.84140700e-01 2.44281039e-10 9.24050633e+05
5.32500029e-01 3.60222424e+15 1.51899961e+15 4.21683801e-01 3.87309492e-01 2.44281039e-10 8.79955080e+05
5.37500024e-01 3.43373992e+15 1.43059858e+15 4.16629859e-01 3.90382409e-01 2.39767665e-10 8.23299801e+05
5.42500019e-01 3.27092898e+15 1.34014996e+15 4.09715394e-01 3.93558413e-01 2.37503852e-10 7.76858233e+05
5.47500014e-01 3.11615420e+15 1.27391221e+15 4.08809105e-01 3.96669805e-01 2.37503852e-10 7.40098626e+05
5.52500010e-01 2.96889077e+15 1.19842766e+15 4.03661753e-01 3.99794012e-01 2.35337558e-10 6.98691506e+05
5.57500005e-01 2.82597305e+15 1.13127729e+15 4.00314254e-01 4.02926326e-01 2.31123942e-10 6.53150031e+05
5.62500000e-01 2.69308005e+15 1.06694001e+15 3.96178349e-01 4.06058699e-01 2.31123942e-10 6.22435278e+05
5.67499995e-01 2.56235601e+15 1.00428712e+15 3.91938948e-01 4.09012318e-01 2.30962292e-10 5.91807617e+05
5.72499990e-01 2.44077596e+15 9.49183128e+14 3.88885807e-01 4.12048906e-01 2.24924704e-10 5.48990809e+05
5.77499986e-01 2.32251484e+15 8.95573056e+14 3.85604880e-01 4.15162891e-01 2.24924704e-10 5.22390962e+05
5.82499981e-01 2.20969598e+15 8.45764182e+14 3.82751378e-01 4.18176502e-01 2.24924704e-10 4.97015214e+05
5.87499976e-01 2.10307905e+15 7.98386285e+14 3.79627329e-01 4.21171188e-01 2.20425018e-10 4.63571239e+05
5.92499971e-01 1.99849204e+15 7.50094204e+14 3.75330094e-01 4.24153894e-01 2.19690690e-10 4.39050095e+05
5.97500026e-01 1.90224893e+15 7.10188011e+14 3.73341258e-01 4.26993400e-01 2.19690690e-10 4.17906381e+05
6.02500021e-01 1.80812204e+15 6.69689439e+14 3.70378450e-01 4.30114806e-01 2.16843090e-10 3.92078770e+05
6.07500017e-01 1.71887101e+15 6.30220232e+14 3.66647775e-01 4.32974607e-01 2.14552227e-10 3.68787603e+05
6.12500012e-01 1.63423506e+15 5.98400080e+14 3.66165245e-01 4.35743093e-01 2.14552227e-10 3.50628770e+05
6.17500007e-01 1.55144003e+15 5.60230419e+14 3.61103496e-01 4.38792318e-01 2.14520824e-10 3.32816193e+05
6.22500002e-01 1.47518396e+15 5.31310115e+14 3.60165328e-01 4.41585004e-01 2.12300249e-10 3.13181922e+05
6.27499998e-01 1.40097391e+15 5.01376141e+14 3.57876859e-01 4.44588602e-01 2.10969413e-10 2.95562642e+05
6.32499993e-01 1.33020506e+15 4.69656049e+14 3.53070413e-01 4.47285801e-01 2.10969413e-10 2.80632580e+05
6.37499988e-01 1.26359495e+15 4.45830655e+14 3.52827190e-01 4.50068176e-01 2.07997351e-10 2.62824402e+05
6.42499983e-01 1.19845801e+15 4.17853620e+14 3.48659374e-01 4.53025311e-01 2.06261639e-10 2.47195913e+05
6.47499979e-01 1.13795400e+15 3.93967700e+14 3.46207052e-01 4.55633819e-01 2.05638552e-10 2.34007213e+05
6.52499974e-01 1.07973196e+15 3.72858022e+14 3.45324614e-01 4.58364010e-01 2.03931717e-10 2.20191593e+05
6.57500029e-01 1.02369599e+15 3.50361529e+14 3.42251539e-01 4.61261183e-01 2.03439851e-10 2.08260560e+05
6.62500024e-01 9.71993109e+14 3.29672060e+14 3.39171191e-01 4.63795692e-01 2.01013025e-10 1.95383275e+05
6.67500019e-01 9.21846011e+14 3.11754803e+14 3.38185336e-01 4.66443598e-01 2.00550768e-10 1.84876926e+05
6.72500014e-01 8.75096097e+14 2.93579947e+14 3.35483095e-01 4.69385803e-01 2.00058414e-10 1.75070337e+05
6.77500010e-01 8.30968529e+14 2.78410083e+14 3.35042872e-01 4.71995801e-01 1.97591684e-10 1.64192471e+05
6.82500005e-01 7.88066638e+14 2.61974431e+14 3.32426750e-01 4.74223107e-01 1.97273410e-10 1.55464593e+05
6.87500000e-01 7.48967134e+14 2.46073971e+14 3.28551094e-01 4.77119893e-01 1.96860761e-10 1.47442240e+05
6.92499995e-01 7.10997879e+14 2.33967590e+14 3.29069323e-01 4.79810089e-01 1.96037038e-10 1.39381918e+05
6.97499990e-01 6.74975250e+14 2.20944475e+14 3.27337151e-01 4.82139915e-01 1.93941681e-10 1.30905834e+05
7.02499986e-01 6.41496181e+14 2.08441428e+14 3.24930115e-01 4.84985799e-01 1.93941681e-10 1.24412847e+05
7.07499981e-01 6.08787791e+14 1.96348266e+14 3.22523331e-01 4.87196416e-01 1.93941681e-10 1.18069327e+05
7.12499976e-01 5.78524444e+14 1.85709088e+14 3.21004739e-01 4.89548177e-01 1.92312893e-10 1.11257710e+05
7.17499971e-01 5.49501840e+14 1.75727378e+14 3.19793976e-01 4.92317587e-01 1.90061381e-10 1.04439078e+05
7.22500026e-01 5.21616195e+14 1.65893729e+14 3.18037919e-01 4.94748175e-01 1.90061381e-10 9.91390941e+04
7.27500021e-01 4.95858605e+14 1.57457863e+14 3.17545893e-01 4.96966302e-01 1.90061381e-10 9.42435710e+04
7.32500017e-01 4.70637416e+14 1.48109383e+14 3.14699551e-01 4.99601692e-01 1.86800128e-10 8.79151296e+04
7.37500012e-01 4.47132704e+14 1.39205528e+14 3.11329337e-01 5.01727164e-01 1.85317329e-10 8.28614383e+04
7.42500007e-01 4.24570201e+14 1.31665840e+14 3.10115594e-01 5.04099190e-01 1.85317329e-10 7.86802154e+04
7.47500002e-01 4.02872798e+14 1.25770244e+14 3.12183511e-01 5.06382167e-01 1.85273327e-10 7.46415836e+04
7.52499998e-01 3.82727019e+14 1.18678847e+14 3.10087455e-01 5.08967519e-01 1.85545816e-10 7.10133970e+04
7.57499993e-01 3.62824006e+14 1.11010493e+14 3.05962370e-01 5.11035383e-01 1.82320627e-10 6.61503004e+04
7.62499988e-01 3.44513990e+14 1.04535427e+14 3.03428686e-01 5.13310909e-01 1.82320627e-10 6.28120068e+04
7.67499983e-01 3.26583911e+14 9.88353195e+13 3.02633768e-01 5.15338600e-01 1.82320627e-10 5.95429835e+04
7.72499979e-01 3.09694489e+14 9.47217923e+13 3.05855595e-01 5.17666578e-01 1.78608257e-10 5.53139930e+04
7.77499974e-01 2.93537090e+14 8.86356236e+13 3.01957151e-01 5.20096481e-01 1.79180856e-10 5.25962272e+04
7.82500029e-01 2.77908795e+14 8.33750000e+13 3.00008497e-01 5.21743834e-01 1.79180856e-10 4.97959358e+04
7.87500024e-01 2.63221198e+14 7.83133754e+13 2.97519258e-01 5.24064600e-01 1.79180856e-10 4.71641996e+04
7.92500019e-01 2.48801701e+14 7.34223620e+13 2.95103939e-01 5.26176810e-01 1.78158240e-10 4.43260730e+04
7.97500014e-01 2.35385901e+14 7.00193399e+13 2.97466159e-01 5.28135180e-01 1.76010965e-10 4.14304996e+04
8.02500010e-01 2.22143208e+14 6.58232086e+13 2.96309796e-01 5.30210197e-01 1.75885872e-10 3.90718519e+04
8.07500005e-01 2.09850592e+14 6.19548666e+13 2.95233223e-01 5.32026827e-01 1.75522454e-10 3.68334908e+04
8.12500000e-01 1.97180489e+14 5.74244777e+13 2.91227991e-01 5.34217477e-01 1.75159380e-10 3.45380123e+04
8.17499995e-01 1.84372896e+14 5.36190053e+13 2.90818262e-01 5.35954595e-01 1.73987667e-10 3.20786102e+04
8.22499990e-01 1.71925192e+14 5.01846385e+13 2.91898110e-01 5.38073361e-01 1.73100939e-10 2.97604121e+04
8.27499986e-01 1.60225600e+14 4.64658229e+13 2.90002489e-01 5.39642096e-01 1.73100939e-10 2.77352018e+04
8.32499981e-01 1.49017497e+14 4.28657468e+13 2.87655796e-01 5.41815162e-01 1.71988298e-10 2.56292658e+04
8.37499976e-01 1.38303903e+14 3.98272921e+13 2.87969401e-01 5.43536186e-01 1.72321950e-10 2.38327982e+04
8.42499971e-01 1.28276404e+14 3.70454238e+13 2.88793751e-01 5.44980645e-01 1.69641888e-10 2.17610514e+04
8.47500026e-01 1.18552799e+14 3.40031174e+13 2.86818342e-01 5.47124624e-01 1.70169247e-10 2.01740406e+04
8.52500021e-01 1.09535600e+14 3.11999300e+13 2.84838264e-01 5.48596501e-01 1.70169247e-10 1.86395905e+04
8.57500017e-01 1.00915692e+14 2.87231486e+13 2.84625195e-01 5.50498128e-01 1.70169247e-10 1.71727474e+04
8.62500012e-01 9.26333429e+13 2.64247742e+13 2.85262016e-01 5.52091837e-01 1.70285496e-10 1.57741147e+04
8.67500007e-01 8.50124184e+13 2.41578646e+13 2.84168655e-01 5.53543210e-01 1.67899535e-10 1.42735455e+04
8.72500002e-01 7.77161078e+13 2.20129790e+13 2.83248604e-01 5.55447519e-01 1.69194954e-10 1.31491733e+04
8.77499998e-01 7.07404686e+13 2.00381740e+13 2.83263236e-01 5.56665838e-01 1.67930135e-10 1.18794564e+04
8.82499993e-01 6.42012718e+13 1.82265037e+13 2.83896303e-01 5.58548391e-01 1.69194954e-10 1.08625313e+04
8.87499988e-01 5.80184315e+13 1.64436613e+13 2.83421334e-01 5.59772193e-01 1.67930135e-10 9.74304304e+03
8.92499983e-01 5.20699605e+13 1.46741758e+13 2.81816534e-01 5.61320126e-01 1.68793740e-10 8.78908337e+03
8.97499979e-01 4.63410404e+13 1.30079321e+13 2.80700046e-01 5.62540829e-01 1.67039328e-10 7.74077625e+03
9.02499974e-01 4.09568081e+13 1.16505336e+13 2.84459023e-01 5.64329147e-01 1.67604465e-10 6.86454390e+03
9.07500029e-01 3.59164417e+13 1.01782809e+13 2.83387787e-01 5.65533876e-01 1.66848876e-10 5.99261793e+03
9.12500024e-01 3.12375090e+13 8.71777700e+12 2.79080416e-01 5.66575289e-01 1.66212538e-10 5.19206563e+03
9.17500019e-01 2.69213709e+13 7.55116408e+12 2.80489582e-01 5.67900181e-01 1.66079258e-10 4.47108130e+03
9.22500014e-01 2.29677990e+13 6.53585538e+12 2.84566030e-01 5.68885803e-01 1.64484998e-10 3.77785838e+03
